0 	1
0.0007 	1
0.0014 	1
0.0021 	1
0.0028 	1
0.0035 	1
0.0042 	1
0.0049 	1
0.0056 	1
0.0063 	1
0.007 	1
0.0077 	1
0.0084 	1
0.0091 	1
0.0098 	1
0.0105 	1
0.0112 	1
0.0119 	1
0.0126 	1
0.0133 	1
0.014 	1
0.0147 	1
0.0154 	1
0.0161 	1
0.0168 	1
0.0175 	1
0.0182 	1
0.0189 	1
0.0196 	1
0.0203 	1
0.021 	1
0.0217 	1
0.0224 	1
0.0231 	1
0.0238 	1
0.0245 	1
0.0252 	1
0.0259 	1
0.0266 	1
0.0273 	1
0.028 	1
0.0287 	1
0.0294 	1
0.0301 	1
0.0308 	1
0.0315 	1
0.0322 	1
0.0329 	1
0.0336 	1
0.0343 	1
0.035 	1
0.0357 	1
0.0364 	1
0.0371 	1
0.0378 	1
0.0385 	1
0.0392 	1
0.0399 	1
0.0406 	1
0.0413 	1
0.042 	1
0.0427 	1
0.0434 	1
0.0441 	1
0.0448 	1
0.0455 	1
0.0462 	1
0.0469 	1
0.0476 	1
0.0483 	1
0.049 	1
0.0497 	1
0.0504 	1
0.0511 	1
0.0518 	1
0.0525 	1
0.0532 	1
0.0539 	1
0.0546 	1
0.0553 	1
0.056 	1
0.0567 	1
0.0574 	1
0.0581 	1
0.0588 	1
0.0595 	1
0.0602 	1
0.0609 	1
0.0616 	1
0.0623 	1
0.063 	1
0.0637 	1
0.0644 	1
0.0651 	1
0.0658 	1
0.0665 	1
0.0672 	1
0.0679 	1
0.0686 	1
0.0693 	1
0.07 	1
0.0707 	1
0.0714 	1
0.0721 	1
0.0728 	1
0.0735 	1
0.0742 	1
0.0749 	1
0.0756 	1
0.0763 	1
0.077 	1
0.0777 	1
0.0784 	1
0.0791 	1
0.0798 	1
0.0805 	1
0.0812 	1
0.0819 	1
0.0826 	1
0.0833 	1
0.084 	1
0.0847 	1
0.0854 	1
0.0861 	1
0.0868 	1
0.0875 	1
0.0882 	1
0.0889 	1
0.0896 	1
0.0903 	1
0.091 	1
0.0917 	1
0.0924 	1
0.0931 	1
0.0938 	1
0.0945 	1
0.0952 	1
0.0959 	1
0.0966 	1
0.0973 	1
0.098 	1
0.0987 	1
0.0994 	1
0.1001 	1
0.1008 	1
0.1015 	1
0.1022 	1
0.1029 	1
0.1036 	1
0.1043 	1
0.105 	1
0.1057 	1
0.1064 	1
0.1071 	1
0.1078 	1
0.1085 	1
0.1092 	1
0.1099 	1
0.1106 	1
0.1113 	1
0.112 	1
0.1127 	1
0.1134 	1
0.1141 	1
0.1148 	1
0.1155 	1
0.1162 	1
0.1169 	1
0.1176 	1
0.1183 	1
0.119 	1
0.1197 	1
0.1204 	1
0.1211 	1
0.1218 	1
0.1225 	1
0.1232 	1
0.1239 	1
0.1246 	1
0.1253 	1
0.126 	1
0.1267 	1
0.1274 	1
0.1281 	1
0.1288 	1
0.1295 	1
0.1302 	1
0.1309 	1
0.1316 	1
0.1323 	1
0.133 	1
0.1337 	1
0.1344 	1
0.1351 	1
0.1358 	1
0.1365 	1
0.1372 	1
0.1379 	1
0.1386 	1
0.1393 	1
0.14 	1
0.1407 	1
0.1414 	1
0.1421 	1
0.1428 	1
0.1435 	1
0.1442 	1
0.1449 	1
0.1456 	1
0.1463 	1
0.147 	1
0.1477 	1
0.1484 	1
0.1491 	1
0.1498 	1
0.1505 	1
0.1512 	1
0.1519 	1
0.1526 	1
0.1533 	1
0.154 	1
0.1547 	1
0.1554 	1
0.1561 	1
0.1568 	1
0.1575 	1
0.1582 	1
0.1589 	1
0.1596 	1
0.1603 	1
0.161 	1
0.1617 	1
0.1624 	1
0.1631 	1
0.1638 	1
0.1645 	1
0.1652 	1
0.1659 	1
0.1666 	1
0.1673 	1
0.168 	1
0.1687 	1
0.1694 	1
0.1701 	1
0.1708 	1
0.1715 	1
0.1722 	1
0.1729 	1
0.1736 	1
0.1743 	1
0.175 	1
0.1757 	1
0.1764 	1
0.1771 	1
0.1778 	1
0.1785 	1
0.1792 	1
0.1799 	1
0.1806 	1
0.1813 	1
0.182 	1
0.1827 	1
0.1834 	1
0.1841 	1
0.1848 	1
0.1855 	1
0.1862 	1
0.1869 	1
0.1876 	1
0.1883 	1
0.189 	1
0.1897 	1
0.1904 	1
0.1911 	1
0.1918 	1
0.1925 	1
0.1932 	1
0.1939 	1
0.1946 	1
0.1953 	1
0.196 	1
0.1967 	1
0.1974 	1
0.1981 	1
0.1988 	1
0.1995 	1
0.2002 	1
0.2009 	1
0.2016 	1
0.2023 	1
0.203 	1
0.2037 	1
0.2044 	1
0.2051 	1
0.2058 	1
0.2065 	1
0.2072 	1
0.2079 	1
0.2086 	1
0.2093 	1
0.21 	1
0.2107 	1
0.2114 	1
0.2121 	1
0.2128 	1
0.2135 	1
0.2142 	1
0.2149 	1
0.2156 	1
0.2163 	1
0.217 	1
0.2177 	1
0.2184 	1
0.2191 	1
0.2198 	1
0.2205 	1
0.2212 	1
0.2219 	1
0.2226 	1
0.2233 	1
0.224 	1
0.2247 	1
0.2254 	1
0.2261 	1
0.2268 	1
0.2275 	1
0.2282 	1
0.2289 	1
0.2296 	1
0.2303 	1
0.231 	1
0.2317 	1
0.2324 	1
0.2331 	1
0.2338 	1
0.2345 	1
0.2352 	1
0.2359 	1
0.2366 	1
0.2373 	1
0.238 	1
0.2387 	1
0.2394 	1
0.2401 	1
0.2408 	1
0.2415 	1
0.2422 	1
0.2429 	1
0.2436 	1
0.2443 	1
0.245 	1
0.2457 	1
0.2464 	0.999998
0.2471 	0.999996
0.2478 	0.999993
0.2485 	0.999991
0.2492 	0.999987
0.2499 	0.999978
0.2506 	0.999972
0.2513 	0.999742
0.252 	0.999335
0.2527 	0.998928
0.2534 	0.998522
0.2541 	0.998105
0.2548 	0.99696
0.2555 	0.995922
0.2562 	0.991212
0.2569 	0.981288
0.2576 	0.971364
0.2583 	0.961439
0.259 	0.951515
0.2597 	0.930277
0.2604 	0.907827
0.2611 	0.878276
0.2618 	0.828846
0.2625 	0.779419
0.2632 	0.729993
0.2639 	0.680567
0.2646 	0.606899
0.2653 	0.523845
0.266 	0.443546
0.2667 	0.38444
0.2674 	0.32533
0.2681 	0.266221
0.2688 	0.207112
0.2695 	0.164384
0.2702 	0.132823
0.2709 	0.100093
0.2716 	0.0798093
0.2723 	0.0596835
0.273 	0.0395578
0.2737 	0.019432
0.2744 	0.00766719
0.2751 	0.00642438
0.2758 	0.00496232
0.2765 	0.00392247
0.2772 	0.00295994
0.2779 	0.0019974
0.2786 	0.00103486
0.2793 	0.000343862
0.28 	0.000288969
0.2807 	0.000225097
0.2814 	0.000177042
0.2821 	0.000135697
0.2828 	9.43516e-05
0.2835 	5.30063e-05
0.2842 	1.76891e-05
0.2849 	1.48826e-05
0.2856 	1.1701e-05
0.2863 	9.10318e-06
0.287 	7.01483e-06
0.2877 	4.92648e-06
0.2884 	2.83814e-06
0.2891 	7.76612e-07
0.2898 	6.51361e-07
0.2905 	5.13959e-07
0.2912 	3.93345e-07
0.2919 	3.03128e-07
0.2926 	2.129e-07
0.2933 	1.22673e-07
0.294 	3.24461e-08
0.2947 	1.72087e-08
0.2954 	1.31732e-08
0.2961 	9.67209e-09
0.2968 	7.42526e-09
0.2975 	5.17783e-09
0.2982 	2.9304e-09
0.2989 	6.82961e-10
0.2996 	6.05209e-11
0.3003 	4.37394e-11
0.301 	2.73617e-11
0.3017 	2.2663e-11
0.3024 	1.79658e-11
0.3031 	1.32685e-11
0.3038 	8.57126e-12
0.3045 	6.8334e-12
0.3052 	7.13988e-12
0.3059 	7.31751e-12
0.3066 	7.49534e-12
0.3073 	7.67295e-12
0.308 	7.85055e-12
0.3087 	8.02816e-12
0.3094 	8.12929e-12
0.3101 	8.08002e-12
0.3108 	7.70615e-12
0.3115 	7.34587e-12
0.3122 	6.98819e-12
0.3129 	6.6305e-12
0.3136 	6.27282e-12
0.3143 	5.93695e-12
0.315 	5.652e-12
0.3157 	4.99578e-12
0.3164 	4.45978e-12
0.3171 	3.97561e-12
0.3178 	3.49143e-12
0.3185 	3.00725e-12
0.3192 	2.57413e-12
0.3199 	2.41478e-12
0.3206 	2.09749e-12
0.3213 	1.80064e-12
0.322 	1.54124e-12
0.3227 	1.28184e-12
0.3234 	1.02244e-12
0.3241 	7.659e-13
0.3248 	7.04559e-13
0.3255 	6.02558e-13
0.3262 	4.97931e-13
0.3269 	4.12694e-13
0.3276 	3.27463e-13
0.3283 	2.42233e-13
0.329 	1.57002e-13
0.3297 	1.33358e-13
0.3304 	1.13052e-13
0.3311 	9.05788e-14
0.3318 	7.38533e-14
0.3325 	5.71326e-14
0.3332 	4.04118e-14
0.3339 	2.36911e-14
0.3346 	1.73589e-14
0.3353 	1.45918e-14
0.336 	1.15875e-14
0.3367 	9.67703e-15
0.3374 	7.76746e-15
0.3381 	5.85789e-15
0.3388 	3.94832e-15
0.3395 	2.92733e-15
0.3402 	2.53042e-15
0.3409 	2.12536e-15
0.3416 	1.87774e-15
0.3423 	1.63249e-15
0.343 	1.38723e-15
0.3437 	1.14198e-15
0.3444 	9.42605e-16
0.3451 	8.03548e-16
0.3458 	6.80844e-16
0.3465 	5.9397e-16
0.3472 	5.13744e-16
0.3479 	4.33517e-16
0.3486 	3.53291e-16
0.3493 	2.8338e-16
0.35 	2.37463e-16
0.3507 	1.95864e-16
0.3514 	1.6412e-16
0.3521 	1.36571e-16
0.3528 	1.09022e-16
0.3535 	8.14733e-17
0.3542 	5.6685e-17
0.3549 	4.66171e-17
0.3556 	3.72169e-17
0.3563 	2.98244e-17
0.357 	2.39267e-17
0.3577 	1.80291e-17
0.3584 	1.21315e-17
0.3591 	6.30661e-18
0.3598 	5.19778e-18
0.3605 	4.08919e-18
0.3612 	3.15206e-18
0.3619 	2.45477e-18
0.3626 	1.75723e-18
0.3633 	1.05968e-18
0.364 	3.62134e-19
0.3647 	2.34566e-19
0.3654 	1.86356e-19
0.3661 	1.40392e-19
0.3668 	1.08368e-19
0.3675 	7.62959e-20
0.3682 	4.42239e-20
0.3689 	1.21518e-20
0.3696 	3.08832e-21
0.3703 	2.46577e-21
0.371 	1.77636e-21
0.3717 	1.37914e-21
0.3724 	9.80415e-22
0.3731 	5.81688e-22
0.3738 	1.82961e-22
0.3745 	1.68485e-23
0.3752 	1.35154e-23
0.3759 	7.88107e-24
0.3766 	6.13286e-24
0.3773 	4.43356e-24
0.378 	2.73426e-24
0.3787 	1.03497e-24
0.3794 	8.72477e-26
0.3801 	7.544e-26
0.3808 	3.6737e-26
0.3815 	2.50447e-26
0.3822 	1.83655e-26
0.3829 	1.16862e-26
0.3836 	5.00688e-27
0.3843 	3.36782e-28
0.385 	3.2241e-28
0.3857 	1.86705e-28
0.3864 	1.29069e-28
0.3871 	1.04772e-28
0.3878 	8.04751e-29
0.3885 	5.61778e-29
0.3892 	3.52902e-29
0.3899 	3.24757e-29
0.3906 	2.35501e-29
0.3913 	1.76876e-29
0.392 	1.50512e-29
0.3927 	1.24148e-29
0.3934 	9.77842e-30
0.3941 	7.17489e-30
0.3948 	6.59695e-30
0.3955 	4.73147e-30
0.3962 	3.11371e-30
0.3969 	2.57229e-30
0.3976 	2.03013e-30
0.3983 	1.48797e-30
0.399 	9.45811e-31
0.3997 	8.29259e-31
0.4004 	6.07201e-31
0.4011 	3.3599e-31
0.4018 	2.70457e-31
0.4025 	2.04624e-31
0.4032 	1.38792e-31
0.4039 	7.29595e-32
0.4046 	5.50037e-32
0.4053 	4.32634e-32
0.406 	1.91768e-32
0.4067 	1.5161e-32
0.4074 	1.11112e-32
0.4081 	7.06133e-33
0.4088 	3.01149e-33
0.4095 	1.45317e-33
0.4102 	1.33662e-33
0.4109 	4.55427e-34
0.4116 	3.48278e-34
0.4123 	2.52724e-34
0.413 	1.5717e-34
0.4137 	6.16151e-35
0.4144 	1.04403e-35
0.4151 	1.27771e-35
0.4158 	4.08521e-36
0.4165 	2.2096e-36
0.4172 	1.61466e-36
0.4179 	1.01971e-36
0.4186 	4.24764e-37
0.4193 	1.34681e-38
0.42 	2.61175e-38
0.4207 	8.34156e-39
0.4214 	2.52262e-39
0.4221 	1.86613e-39
0.4228 	1.20963e-39
0.4235 	5.53138e-40
0.4242 	2.08813e-42
0.4249 	6.61592e-42
0.4256 	2.75736e-42
0.4263 	3.67814e-43
0.427 	2.75499e-43
0.4277 	1.83183e-43
0.4284 	9.08682e-44
0.4291 	1.07942e-46
0.4298 	4.81214e-46
0.4305 	2.82516e-46
0.4312 	2.83539e-47
0.4319 	2.15017e-47
0.4326 	1.46258e-47
0.4333 	7.74985e-48
0.434 	8.73932e-49
0.4347 	3.43017e-50
0.4354 	2.75927e-50
0.4361 	2.24919e-51
0.4368 	1.72654e-51
0.4375 	1.19853e-51
0.4382 	6.70512e-52
0.4389 	1.42497e-52
0.4396 	2.41366e-54
0.4403 	2.62393e-54
0.441 	1.83144e-55
0.4417 	1.42179e-55
0.4424 	1.00516e-55
0.4431 	5.88536e-56
0.4438 	1.71911e-56
0.4445 	1.67301e-58
0.4452 	2.4571e-58
0.4459 	1.89341e-59
0.4466 	1.18421e-59
0.4473 	8.51131e-60
0.448 	5.18056e-60
0.4487 	1.84981e-60
0.4494 	1.13244e-62
0.4501 	2.28348e-62
0.4508 	4.19059e-63
0.4515 	9.86766e-64
0.4522 	7.19936e-64
0.4529 	4.53106e-64
0.4536 	1.86276e-64
0.4543 	7.3429e-67
0.455 	2.115e-66
0.4557 	5.65808e-67
0.4564 	8.18504e-68
0.4571 	6.05399e-68
0.4578 	3.92293e-68
0.4585 	1.79188e-68
0.4592 	4.37916e-71
0.4599 	1.60173e-70
0.4606 	6.55508e-71
0.4613 	6.75196e-72
0.462 	5.05701e-72
0.4627 	3.36207e-72
0.4634 	1.66712e-72
0.4641 	2.16656e-75
0.4648 	1.20318e-74
0.4655 	7.04421e-75
0.4662 	5.53737e-76
0.4669 	4.19798e-76
0.4676 	2.85431e-76
0.4683 	1.51064e-76
0.469 	1.66975e-77
0.4697 	1.25028e-79
0.4704 	3.61716e-80
0.4711 	-3.70623e-79
0.4718 	-4.92307e-79
0.4725 	-5.04028e-79
0.4732 	-5.15749e-79
0.4739 	-5.2747e-79
0.4746 	-1.32015e-78
0.4753 	-1.47648e-78
0.476 	-6.03204e-79
0.4767 	-7.92101e-79
0.4774 	-7.93689e-79
0.4781 	-7.95276e-79
0.4788 	-7.96864e-79
0.4795 	-1.74468e-78
0.4802 	-2.43496e-78
0.4809 	-8.33291e-79
0.4816 	-1.02895e-78
0.4823 	-1.03044e-78
0.483 	-1.03193e-78
0.4837 	-1.03342e-78
0.4844 	-1.96041e-78
0.4851 	-3.44226e-78
0.4858 	-1.37348e-78
0.4865 	-1.21293e-78
0.4872 	-1.21418e-78
0.4879 	-1.21543e-78
0.4886 	-1.21668e-78
0.4893 	-1.95679e-78
0.49 	-4.38926e-78
0.4907 	-1.96063e-78
0.4914 	-1.32542e-78
0.4921 	-1.32631e-78
0.4928 	-1.32719e-78
0.4935 	-1.32808e-78
0.4942 	-1.75543e-78
0.4949 	-4.40238e-78
0.4956 	-2.51381e-78
0.4963 	-1.35694e-78
0.497 	-1.35738e-78
0.4977 	-1.35782e-78
0.4984 	-1.35826e-78
0.4991 	-1.40843e-78
0.4998 	-4.10765e-78
0.5005 	-2.95145e-78
0.5012 	-1.31732e-78
0.5019 	-1.3099e-78
0.5026 	-1.30986e-78
0.5033 	-1.30982e-78
0.504 	-1.30978e-78
0.5047 	-3.58265e-78
0.5054 	-3.21144e-78
0.5061 	-1.24716e-78
0.5068 	-1.19741e-78
0.5075 	-1.19693e-78
0.5082 	-1.19646e-78
0.5089 	-1.19598e-78
0.5096 	-2.92861e-78
0.5103 	-3.26545e-78
0.511 	-1.15386e-78
0.5117 	-1.04062e-78
0.5124 	-1.03981e-78
0.5131 	-1.039e-78
0.5138 	-1.03819e-78
0.5145 	-2.24603e-78
0.5152 	-3.12245e-78
0.5159 	-1.07245e-78
0.5166 	-8.62436e-79
0.5173 	-8.61425e-79
0.518 	-8.60415e-79
0.5187 	-8.59405e-79
0.5194 	-1.61516e-78
0.5201 	-2.8219e-78
0.5208 	-1.12827e-78
0.5215 	-6.83475e-79
0.5222 	-6.82396e-79
0.5229 	-6.81316e-79
0.5236 	-6.80237e-79
0.5243 	-1.08611e-78
0.525 	-2.42041e-78
0.5257 	-1.08257e-78
0.5264 	-5.19182e-79
0.5271 	-5.18144e-79
0.5278 	-5.17106e-79
0.5285 	-5.16067e-79
0.5292 	-6.78767e-79
0.5299 	-1.68835e-78
0.5306 	-9.64406e-79
0.5313 	-3.78836e-79
0.532 	-3.77915e-79
0.5327 	-3.76994e-79
0.5334 	-3.76073e-79
0.5341 	-3.89317e-79
0.5348 	-1.12303e-78
0.5355 	-8.06568e-79
0.5362 	-2.81666e-79
0.5369 	-2.65285e-79
0.5376 	-2.6452e-79
0.5383 	-2.63756e-79
0.539 	-2.62991e-79
0.5397 	-7.12696e-79
0.5404 	-6.38092e-79
0.5411 	-2.15641e-79
0.5418 	-1.79545e-79
0.5425 	-1.78946e-79
0.5432 	-1.78347e-79
0.5439 	-1.77748e-79
0.5446 	-4.31481e-79
0.5453 	-4.80166e-79
0.546 	-1.60511e-79
0.5467 	-1.17347e-79
0.5474 	-1.16901e-79
0.5481 	-1.16455e-79
0.5488 	-1.1601e-79
0.5495 	-2.48974e-79
0.5502 	-3.45153e-79
0.5509 	-1.18637e-79
0.5516 	-7.41739e-80
0.5523 	-7.38574e-80
0.553 	-7.35409e-80
0.5537 	-7.32244e-80
0.5544 	-1.36635e-79
0.5551 	-2.3781e-79
0.5558 	-9.51167e-80
0.5565 	-4.54055e-80
0.5572 	-4.51902e-80
0.5579 	-4.49748e-80
0.5586 	-4.47595e-80
0.5593 	-7.1035e-80
0.56 	-1.57498e-79
0.5607 	-7.04528e-80
0.5614 	-2.69507e-80
0.5621 	-2.68099e-80
0.5628 	-2.66691e-80
0.5635 	-2.65283e-80
0.5642 	-3.47353e-80
0.5649 	-8.58424e-80
0.5656 	-4.90175e-80
0.5663 	-1.55284e-80
0.567 	-1.54397e-80
0.5677 	-1.5351e-80
0.5684 	-1.52623e-80
0.5691 	-1.57666e-80
0.5698 	-4.50878e-80
0.5705 	-3.23568e-80
0.5712 	-9.61058e-81
0.5719 	-8.64014e-81
0.5726 	-8.5862e-81
0.5733 	-8.53226e-81
0.574 	-8.47832e-81
0.5747 	-2.28132e-80
0.5754 	-2.03995e-80
0.5761 	-6.31961e-81
0.5768 	-4.7028e-81
0.5775 	-4.67108e-81
0.5782 	-4.63936e-81
0.5789 	-4.60764e-81
0.5796 	-1.11095e-80
0.5803 	-1.23413e-80
0.581 	-3.98662e-81
0.5817 	-2.49193e-81
0.5824 	-2.47386e-81
0.5831 	-2.45579e-81
0.5838 	-2.43772e-81
0.5845 	-5.19853e-81
0.5852 	-7.18987e-81
0.5859 	-2.46914e-81
0.5866 	-1.28653e-81
0.5873 	-1.27654e-81
0.588 	-1.26656e-81
0.5887 	-1.25657e-81
0.5894 	-2.33111e-81
0.5901 	-4.04485e-81
0.5908 	-1.61654e-81
0.5915 	-6.47609e-82
0.5922 	-6.42251e-82
0.5929 	-6.36894e-82
0.5936 	-6.31537e-82
0.5943 	-9.97166e-82
0.595 	-2.20213e-81
0.5957 	-9.84372e-82
0.5964 	-3.18064e-82
0.5971 	-3.15269e-82
0.5978 	-3.12474e-82
0.5985 	-3.09679e-82
0.5992 	-4.03846e-82
0.5999 	-9.93036e-82
0.6006 	-5.66552e-82
0.6013 	-1.52508e-82
0.602 	-1.51089e-82
0.6027 	-1.4967e-82
0.6034 	-1.48251e-82
0.6041 	-1.52785e-82
0.6048 	-4.34015e-82
0.6055 	-3.1114e-82
0.6062 	-8.19987e-83
0.6069 	-7.07329e-83
0.6076 	-7.00311e-83
0.6083 	-6.93292e-83
0.609 	-6.86274e-83
0.6097 	-1.83706e-82
0.6104 	-1.6406e-82
0.6111 	-4.77652e-83
0.6118 	-3.2367e-83
0.6125 	-3.20287e-83
0.6132 	-3.16903e-83
0.6139 	-3.1352e-83
0.6146 	-7.52105e-83
0.6153 	-8.34191e-83
0.616 	-2.6285e-83
0.6167 	-1.44833e-83
0.6174 	-1.43241e-83
0.6181 	-1.4165e-83
0.6188 	-1.40059e-83
0.6195 	-2.97217e-83
0.6202 	-4.1028e-83
0.6209 	-1.40582e-83
0.6216 	-6.34017e-84
0.6223 	-6.26712e-84
0.623 	-6.19406e-84
0.6237 	-6.12101e-84
0.6244 	-1.13023e-83
0.6251 	-1.95647e-83
0.6258 	-7.80553e-84
0.6265 	-2.71636e-84
0.6272 	-2.6836e-84
0.6279 	-2.65085e-84
0.6286 	-2.61809e-84
0.6293 	-4.11609e-84
0.63 	-9.06268e-84
0.6307 	-4.0454e-84
0.6314 	-1.13951e-84
0.6321 	-1.12516e-84
0.6328 	-1.1108e-84
0.6335 	-1.09645e-84
0.6342 	-1.42458e-84
0.6349 	-3.48981e-84
0.6356 	-1.98845e-84
0.6363 	-4.68212e-85
0.637 	-4.62061e-85
0.6377 	-4.55911e-85
0.6384 	-4.49761e-85
0.6391 	-4.62288e-85
0.6398 	-1.30671e-84
0.6405 	-9.35583e-85
0.6412 	-2.23936e-85
0.6419 	-1.85904e-85
0.6426 	-1.83326e-85
0.6433 	-1.80748e-85
0.644 	-1.7817e-85
0.6447 	-4.75222e-85
0.6454 	-4.23852e-85
0.6461 	-1.17504e-85
0.6468 	-7.33027e-86
0.6475 	-7.22455e-86
0.6482 	-7.11883e-86
0.6489 	-7.01311e-86
0.6496 	-1.67613e-85
0.6503 	-1.85649e-85
0.651 	-5.73211e-86
0.6517 	-2.83367e-86
0.6524 	-2.79122e-86
0.6531 	-2.74878e-86
0.6538 	-2.70634e-86
0.6545 	-5.72117e-86
0.6552 	-7.88524e-86
0.6559 	-2.69285e-86
0.6566 	-1.07406e-86
0.6573 	-1.05737e-86
0.658 	-1.04068e-86
0.6587 	-1.02399e-86
0.6594 	-1.88346e-86
0.6601 	-3.25441e-86
0.6608 	-1.29515e-86
0.6615 	-3.99262e-87
0.6622 	-3.92834e-87
0.6629 	-3.86407e-87
0.6636 	-3.79979e-87
0.6643 	-5.95099e-87
0.665 	-1.30737e-86
0.6657 	-5.82447e-87
0.6664 	-1.45586e-87
0.6671 	-1.4316e-87
0.6678 	-1.40735e-87
0.6685 	-1.38309e-87
0.6692 	-1.79042e-87
0.6699 	-4.37378e-87
0.6706 	-2.48812e-87
0.6713 	-5.20711e-88
0.672 	-5.1174e-88
0.6727 	-5.02768e-88
0.6734 	-4.93797e-88
0.6741 	-5.05936e-88
0.6748 	-1.42481e-87
0.6755 	-1.01871e-87
0.6762 	-2.24366e-88
0.6769 	-1.79436e-88
0.6776 	-1.76185e-88
0.6783 	-1.72933e-88
0.679 	-1.69681e-88
0.6797 	-4.51347e-88
0.6804 	-4.02038e-88
0.6811 	-1.06893e-88
0.6818 	-6.16947e-89
0.6825 	-6.05391e-89
0.6832 	-5.93835e-89
0.6839 	-5.82279e-89
0.6846 	-1.38723e-88
0.6853 	-1.53455e-88
0.686 	-4.65356e-89
0.6867 	-2.07849e-89
0.6874 	-2.03824e-89
0.6881 	-1.998e-89
0.6888 	-1.95775e-89
0.6895 	-4.12341e-89
0.6902 	-5.67538e-89
0.6909 	-1.93036e-89
0.6916 	-6.82076e-90
0.6923 	-6.68305e-90
0.693 	-6.54534e-90
0.6937 	-6.40763e-90
0.6944 	-1.173e-89
0.6951 	-2.02313e-89
0.6958 	-8.02651e-90
0.6965 	-4.08051e-91
0.6972 	-3.59629e-91
0.6979 	-3.11206e-91
0.6986 	-2.62783e-91
0.6993 	-2.4715e-91
0.7 	-3.04913e-91
