0 	1
0.0007 	1
0.0014 	1
0.0021 	1
0.0028 	1
0.0035 	1
0.0042 	1
0.0049 	1
0.0056 	1
0.0063 	1
0.007 	1
0.0077 	1
0.0084 	1
0.0091 	1
0.0098 	1
0.0105 	1
0.0112 	1
0.0119 	1
0.0126 	1
0.0133 	1
0.014 	1
0.0147 	1
0.0154 	1
0.0161 	1
0.0168 	1
0.0175 	1
0.0182 	1
0.0189 	1
0.0196 	1
0.0203 	1
0.021 	1
0.0217 	1
0.0224 	1
0.0231 	1
0.0238 	1
0.0245 	1
0.0252 	1
0.0259 	1
0.0266 	1
0.0273 	1
0.028 	1
0.0287 	1
0.0294 	1
0.0301 	1
0.0308 	1
0.0315 	1
0.0322 	1
0.0329 	1
0.0336 	1
0.0343 	1
0.035 	1
0.0357 	1
0.0364 	1
0.0371 	1
0.0378 	1
0.0385 	1
0.0392 	1
0.0399 	1
0.0406 	1
0.0413 	1
0.042 	1
0.0427 	1
0.0434 	1
0.0441 	1
0.0448 	1
0.0455 	1
0.0462 	1
0.0469 	1
0.0476 	1
0.0483 	1
0.049 	1
0.0497 	1
0.0504 	1
0.0511 	1
0.0518 	1
0.0525 	1
0.0532 	1
0.0539 	1
0.0546 	1
0.0553 	1
0.056 	1
0.0567 	1
0.0574 	1
0.0581 	1
0.0588 	1
0.0595 	1
0.0602 	1
0.0609 	1
0.0616 	1
0.0623 	1
0.063 	1
0.0637 	1
0.0644 	1
0.0651 	1
0.0658 	1
0.0665 	1
0.0672 	1
0.0679 	1
0.0686 	1
0.0693 	1
0.07 	1
0.0707 	1
0.0714 	1
0.0721 	1
0.0728 	1
0.0735 	1
0.0742 	1
0.0749 	1
0.0756 	1
0.0763 	1
0.077 	1
0.0777 	1
0.0784 	1
0.0791 	1
0.0798 	1
0.0805 	1
0.0812 	1
0.0819 	1
0.0826 	1
0.0833 	1
0.084 	1
0.0847 	1
0.0854 	1
0.0861 	1
0.0868 	1
0.0875 	1
0.0882 	1
0.0889 	1
0.0896 	1
0.0903 	1
0.091 	1
0.0917 	1
0.0924 	1
0.0931 	1
0.0938 	1
0.0945 	1
0.0952 	1
0.0959 	1
0.0966 	1
0.0973 	1
0.098 	1
0.0987 	1
0.0994 	1
0.1001 	1
0.1008 	1
0.1015 	1
0.1022 	1
0.1029 	1
0.1036 	1
0.1043 	1
0.105 	1
0.1057 	1
0.1064 	1
0.1071 	1
0.1078 	1
0.1085 	1
0.1092 	1
0.1099 	1
0.1106 	1
0.1113 	1
0.112 	1
0.1127 	1
0.1134 	1
0.1141 	1
0.1148 	1
0.1155 	1
0.1162 	1
0.1169 	1
0.1176 	1
0.1183 	1
0.119 	1
0.1197 	1
0.1204 	1
0.1211 	1
0.1218 	1
0.1225 	1
0.1232 	1
0.1239 	1
0.1246 	1
0.1253 	1
0.126 	1
0.1267 	1
0.1274 	1
0.1281 	1
0.1288 	1
0.1295 	1
0.1302 	1
0.1309 	1
0.1316 	1
0.1323 	1
0.133 	1
0.1337 	1
0.1344 	1
0.1351 	1
0.1358 	1
0.1365 	1
0.1372 	1
0.1379 	1
0.1386 	1
0.1393 	1
0.14 	1
0.1407 	1
0.1414 	1
0.1421 	1
0.1428 	1
0.1435 	1
0.1442 	1
0.1449 	1
0.1456 	1
0.1463 	1
0.147 	1
0.1477 	1
0.1484 	1
0.1491 	1
0.1498 	1
0.1505 	1
0.1512 	1
0.1519 	1
0.1526 	1
0.1533 	1
0.154 	1
0.1547 	1
0.1554 	1
0.1561 	1
0.1568 	1
0.1575 	1
0.1582 	1
0.1589 	1
0.1596 	1
0.1603 	1
0.161 	1
0.1617 	1
0.1624 	1
0.1631 	1
0.1638 	1
0.1645 	1
0.1652 	1
0.1659 	1
0.1666 	1
0.1673 	1
0.168 	1
0.1687 	1
0.1694 	1
0.1701 	1
0.1708 	1
0.1715 	1
0.1722 	1
0.1729 	1
0.1736 	1
0.1743 	1
0.175 	1
0.1757 	1
0.1764 	1
0.1771 	1
0.1778 	1
0.1785 	1
0.1792 	1
0.1799 	1
0.1806 	1
0.1813 	1
0.182 	1
0.1827 	1
0.1834 	1
0.1841 	1
0.1848 	1
0.1855 	1
0.1862 	1
0.1869 	1
0.1876 	1
0.1883 	1
0.189 	1
0.1897 	1
0.1904 	1
0.1911 	1
0.1918 	1
0.1925 	1
0.1932 	1
0.1939 	1
0.1946 	1
0.1953 	1
0.196 	1
0.1967 	1
0.1974 	1
0.1981 	1
0.1988 	1
0.1995 	1
0.2002 	1
0.2009 	1
0.2016 	1
0.2023 	1
0.203 	1
0.2037 	1
0.2044 	1
0.2051 	1
0.2058 	1
0.2065 	1
0.2072 	1
0.2079 	1
0.2086 	1
0.2093 	1
0.21 	1
0.2107 	1
0.2114 	1
0.2121 	1
0.2128 	1
0.2135 	1
0.2142 	1
0.2149 	1
0.2156 	1
0.2163 	1
0.217 	1
0.2177 	1
0.2184 	1
0.2191 	1
0.2198 	1
0.2205 	1
0.2212 	1
0.2219 	1
0.2226 	1
0.2233 	1
0.224 	1
0.2247 	1
0.2254 	1
0.2261 	1
0.2268 	1
0.2275 	1
0.2282 	1
0.2289 	1
0.2296 	1
0.2303 	1
0.231 	1
0.2317 	1
0.2324 	1
0.2331 	1
0.2338 	1
0.2345 	1
0.2352 	1
0.2359 	1
0.2366 	1
0.2373 	1
0.238 	1
0.2387 	1
0.2394 	1
0.2401 	1
0.2408 	1
0.2415 	1
0.2422 	1
0.2429 	1
0.2436 	1
0.2443 	1
0.245 	1
0.2457 	1
0.2464 	1
0.2471 	1
0.2478 	1
0.2485 	1
0.2492 	1
0.2499 	1
0.2506 	1
0.2513 	1
0.252 	1
0.2527 	0.999999
0.2534 	0.999999
0.2541 	0.999999
0.2548 	0.999999
0.2555 	0.999999
0.2562 	0.999999
0.2569 	0.999996
0.2576 	0.999994
0.2583 	0.999991
0.259 	0.999989
0.2597 	0.999986
0.2604 	0.999985
0.2611 	0.999986
0.2618 	0.999957
0.2625 	0.99992
0.2632 	0.999884
0.2639 	0.999861
0.2646 	0.999819
0.2653 	0.999799
0.266 	0.999809
0.2667 	0.999425
0.2674 	0.998821
0.2681 	0.998217
0.2688 	0.997869
0.2695 	0.997187
0.2702 	0.996765
0.2709 	0.996994
0.2716 	0.991652
0.2723 	0.980738
0.273 	0.969824
0.2737 	0.962936
0.2744 	0.951326
0.2751 	0.941221
0.2758 	0.944918
0.2765 	0.931536
0.2772 	0.887412
0.2779 	0.843289
0.2786 	0.806482
0.2793 	0.751524
0.28 	0.68632
0.2807 	0.64092
0.2814 	0.59326
0.2821 	0.537315
0.2828 	0.481371
0.2835 	0.425972
0.2842 	0.367445
0.2849 	0.305151
0.2856 	0.232134
0.2863 	0.160874
0.287 	0.135677
0.2877 	0.110481
0.2884 	0.0852843
0.2891 	0.0592933
0.2898 	0.0577609
0.2905 	0.042345
0.2912 	0.0213757
0.2919 	0.0169919
0.2926 	0.0138839
0.2933 	0.0107758
0.294 	0.00236085
0.2947 	0.0032559
0.2954 	0.0027766
0.2961 	0.00126652
0.2968 	0.000881255
0.2975 	0.000802749
0.2982 	0.000724244
0.2989 	1.97448e-05
0.2996 	3.99473e-05
0.3003 	4.1907e-05
0.301 	1.9543e-05
0.3017 	1.13808e-05
0.3024 	1.11083e-05
0.3031 	1.08359e-05
0.3038 	2.51298e-08
0.3045 	6.69466e-08
0.3052 	8.46619e-08
0.3059 	4.21232e-08
0.3066 	2.08076e-08
0.3073 	2.07145e-08
0.308 	2.06215e-08
0.3087 	3.0426e-09
0.3094 	1.78695e-11
0.3101 	2.28071e-11
0.3108 	1.58931e-11
0.3115 	1.14495e-11
0.3122 	1.14526e-11
0.3129 	1.14557e-11
0.3136 	9.59758e-12
0.3143 	8.12936e-12
0.315 	8.14339e-12
0.3157 	8.15847e-12
0.3164 	8.16632e-12
0.3171 	8.14771e-12
0.3178 	8.1291e-12
0.3185 	8.11335e-12
0.3192 	8.09607e-12
0.3199 	8.0669e-12
0.3206 	8.06071e-12
0.3213 	8.05232e-12
0.322 	7.96565e-12
0.3227 	7.87899e-12
0.3234 	7.79232e-12
0.3241 	7.71806e-12
0.3248 	7.60294e-12
0.3255 	7.52945e-12
0.3262 	7.47262e-12
0.3269 	7.285e-12
0.3276 	7.08733e-12
0.3283 	6.88965e-12
0.329 	6.71407e-12
0.3297 	6.46218e-12
0.3304 	6.25072e-12
0.3311 	6.06956e-12
0.3318 	5.79667e-12
0.3325 	5.49876e-12
0.3332 	5.20085e-12
0.3339 	4.92289e-12
0.3346 	4.5729e-12
0.3353 	4.23434e-12
0.336 	3.91104e-12
0.3367 	3.60594e-12
0.3374 	3.31096e-12
0.3381 	3.01598e-12
0.3388 	2.70987e-12
0.3395 	2.4188e-12
0.3402 	2.11343e-12
0.3409 	1.77232e-12
0.3416 	1.51279e-12
0.3423 	1.33483e-12
0.343 	1.15688e-12
0.3437 	9.38914e-13
0.3444 	8.13842e-13
0.3451 	6.90105e-13
0.3458 	5.04829e-13
0.3465 	3.65219e-13
0.3472 	3.07803e-13
0.3479 	2.50388e-13
0.3486 	1.71676e-13
0.3493 	1.34194e-13
0.35 	1.24016e-13
0.3507 	8.12505e-14
0.3514 	4.59527e-14
0.3521 	3.80338e-14
0.3528 	3.0115e-14
0.3535 	1.90398e-14
0.3542 	7.63961e-15
0.3549 	8.65289e-15
0.3556 	5.81388e-15
0.3563 	2.55803e-15
0.357 	2.22956e-15
0.3577 	1.9011e-15
0.3584 	1.57263e-15
0.3591 	1.10468e-16
0.3598 	1.63521e-16
0.3605 	1.25237e-16
0.3612 	5.04189e-17
0.3619 	4.22849e-17
0.3626 	3.92802e-17
0.3633 	3.62754e-17
0.364 	1.52896e-18
0.3647 	1.61545e-18
0.3654 	1.41484e-18
0.3661 	9.98899e-19
0.3668 	8.24281e-19
0.3675 	7.15474e-19
0.3682 	6.06668e-19
0.3689 	3.88471e-19
0.3696 	3.33374e-19
0.3703 	2.8295e-19
0.371 	2.38757e-19
0.3717 	2.01183e-19
0.3724 	1.67287e-19
0.3731 	1.3339e-19
0.3738 	1.02359e-19
0.3745 	8.25227e-20
0.3752 	6.40776e-20
0.3759 	4.91093e-20
0.3766 	3.76507e-20
0.3773 	2.97015e-20
0.378 	2.17524e-20
0.3787 	1.32269e-20
0.3794 	1.03264e-20
0.3801 	7.90879e-21
0.3808 	5.4031e-21
0.3815 	3.49825e-21
0.3822 	2.6749e-21
0.3829 	1.85156e-21
0.3836 	7.96997e-22
0.3843 	4.06848e-22
0.385 	3.75385e-22
0.3857 	2.38509e-22
0.3864 	1.25771e-22
0.3871 	1.01537e-22
0.3878 	7.73035e-23
0.3885 	4.27038e-23
0.3892 	3.41876e-24
0.3899 	4.23e-24
0.3906 	2.82787e-24
0.3913 	1.17406e-24
0.392 	1.04404e-24
0.3927 	9.14012e-25
0.3934 	7.83989e-25
0.3941 	4.35058e-27
0.3948 	7.02617e-27
0.3955 	5.40257e-27
0.3962 	2.0593e-27
0.3969 	1.73795e-27
0.3976 	1.64905e-27
0.3983 	1.56014e-27
0.399 	5.63113e-31
0.3997 	1.0881e-30
0.4004 	9.85511e-31
0.4011 	4.12237e-31
0.4018 	2.8421e-31
0.4025 	2.77611e-31
0.4032 	2.71011e-31
0.4039 	5.46789e-35
0.4046 	6.90469e-35
0.4053 	6.46757e-35
0.406 	3.53189e-35
0.4067 	2.23782e-35
0.4074 	1.85575e-35
0.4081 	1.47367e-35
0.4088 	7.94201e-37
0.4095 	6.3674e-37
0.4102 	4.86595e-37
0.4109 	3.54741e-37
0.4116 	2.49453e-37
0.4123 	1.70731e-37
0.413 	9.20088e-38
0.4137 	2.1638e-38
0.4144 	1.36186e-38
0.4151 	9.65242e-39
0.4158 	6.95257e-39
0.4165 	4.70374e-39
0.4172 	3.26672e-39
0.4179 	1.8297e-39
0.4186 	4.25416e-40
0.4193 	1.14991e-40
0.42 	7.73736e-41
0.4207 	5.43256e-41
0.4214 	3.41728e-41
0.4221 	2.46355e-41
0.4228 	1.50982e-41
0.4235 	5.089e-42
0.4242 	1.96152e-43
0.4249 	1.44469e-43
0.4256 	9.8082e-44
0.4263 	5.48964e-44
0.427 	4.18482e-44
0.4277 	2.87999e-44
0.4284 	1.57516e-44
0.4291 	4.08511e-47
0.4298 	3.75027e-47
0.4305 	2.67966e-47
0.4312 	1.31474e-47
0.4319 	1.01486e-47
0.4326 	7.96916e-48
0.4333 	5.78967e-48
0.434 	2.22104e-51
0.4347 	2.14357e-51
0.4354 	1.65147e-51
0.4361 	8.48412e-52
0.4368 	5.87436e-52
0.4375 	4.74299e-52
0.4382 	3.61162e-52
0.4389 	1.17061e-55
0.4396 	1.17296e-55
0.4403 	9.80262e-56
0.441 	5.27503e-56
0.4417 	3.28569e-56
0.4424 	2.70645e-56
0.4431 	2.12722e-56
0.4438 	6.11774e-60
0.4445 	6.27665e-60
0.4452 	5.6807e-60
0.4459 	3.19761e-60
0.4466 	1.80667e-60
0.4473 	1.50787e-60
0.448 	1.20907e-60
0.4487 	1.56304e-61
0.4494 	3.31179e-64
0.4501 	3.23719e-64
0.4508 	1.89808e-64
0.4515 	9.8203e-65
0.4522 	8.275e-65
0.4529 	6.7297e-65
0.4536 	2.53964e-65
0.4543 	1.71944e-68
0.455 	1.81951e-68
0.4557 	1.10511e-68
0.4564 	5.26889e-69
0.4571 	4.48021e-69
0.4578 	3.69153e-69
0.4585 	2.27029e-69
0.4592 	8.73923e-73
0.4599 	9.44412e-73
0.4606 	6.31243e-73
0.4613 	2.78257e-73
0.462 	2.38901e-73
0.4627 	1.99545e-73
0.4634 	1.60189e-73
0.4641 	-2.23128e-76
0.4648 	-7.47508e-76
0.4655 	-5.33007e-76
0.4662 	-2.29524e-77
0.4669 	1.11981e-77
0.4676 	8.74231e-78
0.4683 	6.28653e-78
0.469 	-4.99038e-76
0.4697 	-1.88926e-75
0.4704 	-1.69143e-75
0.4711 	-3.0255e-76
0.4718 	-5.75297e-78
0.4725 	-6.7902e-78
0.4732 	-7.82743e-78
0.4739 	-5.3211e-76
0.4746 	-2.97615e-75
0.4753 	-3.32591e-75
0.476 	-8.83295e-76
0.4767 	-1.17316e-77
0.4774 	-1.29626e-77
0.4781 	-1.41935e-77
0.4788 	-2.72766e-76
0.4795 	-3.88119e-75
0.4802 	-5.42811e-75
0.4809 	-1.82129e-75
0.4816 	-1.85444e-77
0.4823 	-1.9856e-77
0.483 	-2.11675e-77
0.4837 	-2.21843e-77
0.4844 	-4.40617e-75
0.4851 	-7.77866e-75
0.4858 	-3.05909e-75
0.4865 	-2.55272e-77
0.4872 	-2.67236e-77
0.4879 	-2.79199e-77
0.4886 	-2.8945e-77
0.4893 	-4.43105e-75
0.49 	-1.00336e-74
0.4907 	-4.43238e-75
0.4914 	-3.1653e-77
0.4921 	-3.25392e-77
0.4928 	-3.34253e-77
0.4935 	-3.42564e-77
0.4942 	-3.96619e-75
0.4949 	-1.00823e-74
0.4956 	-5.71438e-75
0.4963 	-3.59732e-77
0.497 	-3.64219e-77
0.4977 	-3.68705e-77
0.4984 	-3.73192e-77
0.4991 	-3.14069e-75
0.4998 	-9.34717e-75
0.5005 	-6.68743e-75
0.5012 	-4.81204e-76
0.5019 	-3.79008e-77
0.5026 	-3.78829e-77
0.5033 	-3.7865e-77
0.504 	-2.1464e-75
0.5047 	-8.05029e-75
0.5054 	-7.2067e-75
0.5061 	-1.3025e-75
0.5068 	-3.69978e-77
0.5075 	-3.65748e-77
0.5082 	-3.61519e-77
0.5089 	-1.17207e-75
0.5096 	-6.47397e-75
0.5103 	-7.23106e-75
0.511 	-1.92839e-75
0.5117 	-3.41425e-77
0.5124 	-3.34333e-77
0.5131 	-3.2724e-77
0.5138 	-3.55314e-76
0.5145 	-4.87807e-75
0.5152 	-6.8161e-75
0.5159 	-2.29231e-75
0.5166 	-2.99913e-77
0.5173 	-2.91313e-77
0.518 	-2.82713e-77
0.5187 	-2.76007e-77
0.5194 	-3.44906e-75
0.5201 	-6.08081e-75
0.5208 	-2.395e-75
0.5215 	-2.52347e-77
0.5222 	-2.43433e-77
0.5229 	-2.34519e-77
0.5236 	-2.26861e-77
0.5243 	-2.28589e-75
0.525 	-5.16643e-75
0.5257 	-2.28478e-75
0.5264 	-2.0454e-77
0.5271 	-1.96173e-77
0.5278 	-1.87806e-77
0.5285 	-1.79956e-77
0.5292 	-1.41267e-75
0.5299 	-3.58236e-75
0.5306 	-2.03173e-75
0.5313 	-1.60525e-77
0.532 	-1.53201e-77
0.5327 	-1.45877e-77
0.5334 	-1.38553e-77
0.5341 	-8.03693e-76
0.5348 	-2.38371e-75
0.5355 	-1.70597e-75
0.5362 	-1.25122e-76
0.5369 	-1.16426e-77
0.5376 	-1.10339e-77
0.5383 	-1.04252e-77
0.539 	-4.08598e-76
0.5397 	-1.52412e-75
0.5404 	-1.36438e-75
0.5411 	-2.48199e-76
0.5418 	-8.63842e-78
0.5425 	-8.15231e-78
0.5432 	-7.6662e-78
0.5439 	-1.71395e-76
0.5446 	-9.36624e-76
0.5453 	-1.04573e-75
0.546 	-2.7999e-76
0.5467 	-6.27264e-78
0.5474 	-5.89657e-78
0.5481 	-5.5205e-78
0.5488 	-4.17677e-77
0.5495 	-5.5265e-76
0.5502 	-7.71492e-76
0.5509 	-2.60234e-76
0.5516 	-4.46419e-78
0.5523 	-4.18093e-78
0.553 	-3.89768e-78
0.5537 	-3.68227e-78
0.5544 	-3.12279e-76
0.5551 	-5.49627e-76
0.5558 	-2.17013e-76
0.5565 	-3.11617e-78
0.5572 	-2.90788e-78
0.5579 	-2.69959e-78
0.5586 	-2.52393e-78
0.5593 	-1.68171e-76
0.56 	-3.79015e-76
0.5607 	-1.67979e-76
0.5614 	-2.13371e-78
0.5621 	-1.98403e-78
0.5628 	-1.83435e-78
0.5635 	-1.69512e-78
0.5642 	-8.55912e-77
0.5649 	-2.16126e-76
0.5656 	-1.22774e-76
0.5663 	-1.43277e-78
0.567 	-1.32765e-78
0.5677 	-1.22253e-78
0.5684 	-1.1174e-78
0.5691 	-4.05494e-77
0.5698 	-1.19455e-76
0.5705 	-8.55747e-77
0.5712 	-6.58026e-78
0.5719 	-8.70969e-79
0.5726 	-7.98853e-79
0.5733 	-7.26738e-79
0.574 	-1.73422e-77
0.5747 	-6.39333e-77
0.5754 	-5.72439e-77
0.5761 	-1.05942e-77
0.5768 	-5.59919e-79
0.5775 	-5.11623e-79
0.5782 	-4.63328e-79
0.5789 	-6.2016e-78
0.5796 	-3.30869e-77
0.5803 	-3.69114e-77
0.581 	-9.98827e-78
0.5817 	-3.52613e-79
0.5824 	-3.21054e-79
0.5831 	-2.89495e-79
0.5838 	-1.35368e-78
0.5845 	-1.65227e-77
0.5852 	-2.30169e-77
0.5859 	-7.82398e-78
0.5866 	-2.17482e-79
0.5873 	-1.97365e-79
0.588 	-1.77248e-79
0.5887 	-1.62579e-79
0.5894 	-7.9367e-78
0.5901 	-1.3915e-77
0.5908 	-5.52768e-78
0.5915 	-1.31358e-79
0.5922 	-1.18849e-79
0.5929 	-1.06339e-79
0.5936 	-9.60185e-80
0.5943 	-3.6493e-78
0.595 	-8.17271e-78
0.5957 	-3.64041e-78
0.5964 	-7.76973e-80
0.5971 	-7.01077e-80
0.5978 	-6.25182e-80
0.5985 	-5.55131e-80
0.5992 	-1.59333e-78
0.5999 	-3.98677e-78
0.6006 	-2.27268e-78
0.6013 	-4.50116e-80
0.602 	-4.05172e-80
0.6027 	-3.60227e-80
0.6034 	-3.15282e-80
0.6041 	-6.51273e-79
0.6048 	-1.89231e-78
0.6055 	-1.35827e-78
0.6062 	-1.14218e-79
0.6069 	-2.29454e-80
0.6076 	-2.03463e-80
0.6083 	-1.77472e-80
0.609 	-2.42273e-79
0.6097 	-8.73222e-79
0.6104 	-7.82112e-79
0.6111 	-1.49458e-79
0.6118 	-1.27361e-80
0.6125 	-1.12676e-80
0.6132 	-9.79903e-81
0.6139 	-7.65676e-80
0.6146 	-3.91263e-79
0.6153 	-4.35816e-79
0.616 	-1.20179e-79
0.6167 	-6.93067e-81
0.6174 	-6.11952e-81
0.6181 	-5.30837e-81
0.6188 	-1.58302e-80
0.6195 	-1.69892e-79
0.6202 	-2.35773e-79
0.6209 	-8.12028e-80
0.6216 	-3.69855e-81
0.6223 	-3.2603e-81
0.623 	-2.82205e-81
0.6237 	-2.50816e-81
0.6244 	-7.12739e-80
0.6251 	-1.24139e-79
0.6258 	-4.98049e-80
0.6265 	-1.93609e-81
0.6272 	-1.70437e-81
0.6279 	-1.47264e-81
0.6286 	-1.28316e-81
0.6293 	-2.87541e-80
0.63 	-6.37348e-80
0.6307 	-2.86146e-80
0.6314 	-9.94439e-82
0.6321 	-8.74463e-82
0.6328 	-7.54488e-82
0.6335 	-6.44131e-82
0.6342 	-1.10705e-80
0.6349 	-2.73078e-80
0.6356 	-1.5649e-80
0.6363 	-5.01307e-82
0.637 	-4.40454e-82
0.6377 	-3.79602e-82
0.6384 	-3.18749e-82
0.6391 	-4.01398e-81
0.6398 	-1.14241e-80
0.6405 	-8.22315e-81
0.6412 	-7.7774e-82
0.6419 	-2.17843e-82
0.6426 	-1.87593e-82
0.6433 	-1.57343e-82
0.644 	-1.33595e-81
0.6447 	-4.66178e-81
0.6454 	-4.17682e-81
0.6461 	-8.33769e-82
0.6468 	-1.05821e-82
0.6475 	-9.10768e-83
0.6482 	-7.63328e-83
0.6489 	-3.84433e-82
0.6496 	-1.85289e-81
0.6503 	-2.05914e-81
0.651 	-5.82426e-82
0.6517 	-5.04986e-83
0.6524 	-4.34498e-83
0.6531 	-3.6401e-83
0.6538 	-7.78317e-83
0.6545 	-7.1585e-82
0.6552 	-9.88178e-82
0.6559 	-3.4628e-82
0.6566 	-2.3679e-83
0.6573 	-2.03723e-83
0.658 	-1.70656e-83
0.6587 	-1.47168e-83
0.6594 	-2.68012e-82
0.6601 	-4.62648e-82
0.6608 	-1.88009e-82
0.6615 	-1.09123e-83
0.6622 	-9.38963e-84
0.6629 	-7.86701e-84
0.6636 	-6.62779e-84
0.6643 	-9.67996e-83
0.665 	-2.11676e-82
0.6657 	-9.59883e-83
0.6664 	-4.94338e-84
0.6671 	-4.25496e-84
0.6678 	-3.56654e-84
0.6685 	-2.93471e-84
0.6692 	-3.34864e-83
0.6699 	-8.11144e-83
0.6706 	-4.67849e-83
0.6713 	-2.20184e-84
0.672 	-1.89613e-84
0.6727 	-1.59042e-84
0.6734 	-1.28471e-84
0.6741 	-1.09618e-83
0.6748 	-3.04115e-83
0.6755 	-2.19631e-83
0.6762 	-2.3555e-84
0.6769 	-8.31111e-85
0.6776 	-6.97725e-85
0.6783 	-5.64339e-85
0.679 	-3.31913e-84
0.6797 	-1.1144e-83
0.6804 	-9.9874e-84
0.6811 	-2.09464e-84
0.6818 	-3.58396e-85
0.6825 	-3.01198e-85
0.6832 	-2.44001e-85
0.6839 	-8.83536e-85
0.6846 	-3.98567e-84
0.6853 	-4.41654e-84
0.686 	-1.28573e-84
0.6867 	-1.52086e-85
0.6874 	-1.27973e-85
0.6881 	-1.0386e-85
0.6888 	-1.76387e-85
0.6895 	-1.38858e-84
0.6902 	-1.90469e-84
0.6909 	-6.80579e-85
0.6916 	-6.35283e-86
0.6923 	-5.35318e-86
0.693 	-4.35353e-86
0.6937 	-3.64732e-86
0.6944 	-4.69973e-85
0.6951 	-8.02884e-85
0.6958 	-3.30966e-85
0.6965 	-2.65521e-86
0.6972 	-2.36465e-86
0.6979 	-2.0741e-86
0.6986 	-1.83836e-86
0.6993 	-2.21985e-85
0.7 	-4.81324e-85
