0 	1
0.0007 	1
0.0014 	1
0.0021 	1
0.0028 	1
0.0035 	1
0.0042 	1
0.0049 	1
0.0056 	1
0.0063 	1
0.007 	1
0.0077 	1
0.0084 	1
0.0091 	1
0.0098 	1
0.0105 	1
0.0112 	1
0.0119 	1
0.0126 	1
0.0133 	1
0.014 	1
0.0147 	1
0.0154 	1
0.0161 	1
0.0168 	1
0.0175 	1
0.0182 	1
0.0189 	1
0.0196 	1
0.0203 	1
0.021 	1
0.0217 	1
0.0224 	1
0.0231 	1
0.0238 	1
0.0245 	1
0.0252 	1
0.0259 	1
0.0266 	1
0.0273 	1
0.028 	1
0.0287 	1
0.0294 	1
0.0301 	1
0.0308 	1
0.0315 	1
0.0322 	1
0.0329 	1
0.0336 	1
0.0343 	1
0.035 	1
0.0357 	1
0.0364 	1
0.0371 	1
0.0378 	1
0.0385 	1
0.0392 	1
0.0399 	1
0.0406 	1
0.0413 	1
0.042 	1
0.0427 	1
0.0434 	1
0.0441 	1
0.0448 	1
0.0455 	1
0.0462 	1
0.0469 	1
0.0476 	1
0.0483 	1
0.049 	1
0.0497 	1
0.0504 	1
0.0511 	1
0.0518 	1
0.0525 	1
0.0532 	1
0.0539 	1
0.0546 	1
0.0553 	1
0.056 	1
0.0567 	1
0.0574 	1
0.0581 	1
0.0588 	1
0.0595 	1
0.0602 	1
0.0609 	1
0.0616 	1
0.0623 	1
0.063 	1
0.0637 	1
0.0644 	1
0.0651 	1
0.0658 	1
0.0665 	1
0.0672 	1
0.0679 	1
0.0686 	1
0.0693 	1
0.07 	1
0.0707 	1
0.0714 	1
0.0721 	1
0.0728 	1
0.0735 	1
0.0742 	1
0.0749 	1
0.0756 	1
0.0763 	1
0.077 	1
0.0777 	1
0.0784 	1
0.0791 	1
0.0798 	1
0.0805 	1
0.0812 	1
0.0819 	1
0.0826 	1
0.0833 	1
0.084 	1
0.0847 	1
0.0854 	1
0.0861 	1
0.0868 	1
0.0875 	1
0.0882 	1
0.0889 	1
0.0896 	1
0.0903 	1
0.091 	1
0.0917 	1
0.0924 	1
0.0931 	1
0.0938 	1
0.0945 	1
0.0952 	1
0.0959 	1
0.0966 	1
0.0973 	1
0.098 	1
0.0987 	1
0.0994 	1
0.1001 	1
0.1008 	1
0.1015 	1
0.1022 	1
0.1029 	1
0.1036 	1
0.1043 	1
0.105 	1
0.1057 	1
0.1064 	1
0.1071 	1
0.1078 	1
0.1085 	1
0.1092 	1
0.1099 	1
0.1106 	1
0.1113 	1
0.112 	1
0.1127 	1
0.1134 	1
0.1141 	1
0.1148 	1
0.1155 	1
0.1162 	1
0.1169 	1
0.1176 	1
0.1183 	1
0.119 	1
0.1197 	1
0.1204 	1
0.1211 	1
0.1218 	1
0.1225 	1
0.1232 	1
0.1239 	1
0.1246 	1
0.1253 	1
0.126 	1
0.1267 	1
0.1274 	1
0.1281 	1
0.1288 	1
0.1295 	1
0.1302 	1
0.1309 	1
0.1316 	1
0.1323 	1
0.133 	1
0.1337 	1
0.1344 	1
0.1351 	1
0.1358 	1
0.1365 	1
0.1372 	1
0.1379 	1
0.1386 	1
0.1393 	1
0.14 	1
0.1407 	1
0.1414 	1
0.1421 	1
0.1428 	1
0.1435 	1
0.1442 	1
0.1449 	1
0.1456 	1
0.1463 	1
0.147 	1
0.1477 	1
0.1484 	1
0.1491 	1
0.1498 	1
0.1505 	1
0.1512 	1
0.1519 	1
0.1526 	1
0.1533 	1
0.154 	1
0.1547 	1
0.1554 	1
0.1561 	1
0.1568 	1
0.1575 	1
0.1582 	1
0.1589 	1
0.1596 	1
0.1603 	1
0.161 	1
0.1617 	1
0.1624 	1
0.1631 	1
0.1638 	1
0.1645 	1
0.1652 	1
0.1659 	1
0.1666 	1
0.1673 	1
0.168 	1
0.1687 	1
0.1694 	1
0.1701 	1
0.1708 	1
0.1715 	1
0.1722 	1
0.1729 	1
0.1736 	1
0.1743 	1
0.175 	1
0.1757 	1
0.1764 	1
0.1771 	1
0.1778 	1
0.1785 	1
0.1792 	1
0.1799 	1
0.1806 	1
0.1813 	1
0.182 	1
0.1827 	1
0.1834 	1
0.1841 	1
0.1848 	1
0.1855 	1
0.1862 	1
0.1869 	1
0.1876 	1
0.1883 	1
0.189 	1
0.1897 	1
0.1904 	1
0.1911 	1
0.1918 	1
0.1925 	1
0.1932 	1
0.1939 	1
0.1946 	1
0.1953 	1
0.196 	1
0.1967 	1
0.1974 	1
0.1981 	1
0.1988 	1
0.1995 	1
0.2002 	1
0.2009 	1
0.2016 	1
0.2023 	1
0.203 	1
0.2037 	1
0.2044 	1
0.2051 	1
0.2058 	1
0.2065 	1
0.2072 	1
0.2079 	1
0.2086 	1
0.2093 	1
0.21 	1
0.2107 	1
0.2114 	1
0.2121 	1
0.2128 	1
0.2135 	1
0.2142 	1
0.2149 	1
0.2156 	1
0.2163 	1
0.217 	0.999999
0.2177 	0.999999
0.2184 	0.999996
0.2191 	0.999989
0.2198 	0.999982
0.2205 	0.999982
0.2212 	0.999986
0.2219 	0.999868
0.2226 	0.999741
0.2233 	0.999401
0.224 	0.998628
0.2247 	0.997771
0.2254 	0.997376
0.2261 	0.997329
0.2268 	0.993571
0.2275 	0.988801
0.2282 	0.982229
0.2289 	0.967933
0.2296 	0.949927
0.2303 	0.934927
0.231 	0.923934
0.2317 	0.897373
0.2324 	0.862162
0.2331 	0.825759
0.2338 	0.771348
0.2345 	0.694453
0.2352 	0.618139
0.2359 	0.543279
0.2366 	0.474931
0.2373 	0.413096
0.238 	0.35126
0.2387 	0.29494
0.2394 	0.251161
0.2401 	0.20727
0.2408 	0.157126
0.2415 	0.112561
0.2422 	0.0780405
0.2429 	0.0435202
0.2436 	0.0230468
0.2443 	0.018769
0.245 	0.017838
0.2457 	0.013675
0.2464 	0.00967883
0.2471 	0.0062941
0.2478 	0.00290938
0.2485 	0.0011539
0.2492 	0.000820778
0.2499 	0.000765136
0.2506 	0.000606891
0.2513 	0.00043413
0.252 	0.00029497
0.2527 	0.00015581
0.2534 	6.61611e-05
0.2541 	4.50728e-05
0.2548 	4.20515e-05
0.2555 	3.43488e-05
0.2562 	2.47735e-05
0.2569 	1.70277e-05
0.2576 	9.42268e-06
0.2583 	3.7505e-06
0.259 	2.3425e-06
0.2597 	2.19949e-06
0.2604 	1.85312e-06
0.2611 	1.35424e-06
0.2618 	9.34112e-07
0.2625 	5.35466e-07
0.2632 	1.97778e-07
0.2639 	1.12959e-07
0.2646 	1.06791e-07
0.2653 	9.29077e-08
0.266 	6.87383e-08
0.2667 	4.76074e-08
0.2674 	2.81648e-08
0.2681 	9.66635e-09
0.2688 	5.04288e-09
0.2695 	4.80149e-09
0.2702 	4.31994e-09
0.2709 	3.238e-09
0.2716 	2.25868e-09
0.2723 	1.38199e-09
0.273 	5.05298e-10
0.2737 	2.38779e-10
0.2744 	2.1412e-10
0.2751 	1.98933e-10
0.2758 	1.52833e-10
0.2765 	1.09749e-10
0.2772 	7.20955e-11
0.2779 	3.44421e-11
0.2786 	1.86168e-11
0.2793 	1.56143e-11
0.28 	1.44158e-11
0.2807 	1.17251e-11
0.2814 	9.15392e-12
0.2821 	7.02062e-12
0.2828 	4.88732e-12
0.2835 	3.5831e-12
0.2842 	3.11189e-12
0.2849 	2.839e-12
0.2856 	2.48381e-12
0.2863 	2.1203e-12
0.287 	1.8269e-12
0.2877 	1.5335e-12
0.2884 	1.29651e-12
0.2891 	1.15536e-12
0.2898 	1.05182e-12
0.2905 	9.39774e-13
0.2912 	8.24322e-13
0.2919 	7.26989e-13
0.2926 	6.31049e-13
0.2933 	5.43161e-13
0.294 	4.77257e-13
0.2947 	4.2385e-13
0.2954 	3.667e-13
0.2961 	3.06741e-13
0.2968 	2.58105e-13
0.2975 	2.12555e-13
0.2982 	1.69773e-13
0.2989 	1.40782e-13
0.2996 	1.23087e-13
0.3003 	1.04022e-13
0.301 	8.31315e-14
0.3017 	6.60416e-14
0.3024 	5.10631e-14
0.3031 	3.64299e-14
0.3038 	2.74409e-14
0.3045 	2.39314e-14
0.3052 	2.02295e-14
0.3059 	1.60471e-14
0.3066 	1.24816e-14
0.3073 	9.53321e-15
0.308 	6.58478e-15
0.3087 	4.66884e-15
0.3094 	3.98884e-15
0.3101 	3.38205e-15
0.3108 	2.68645e-15
0.3115 	2.06633e-15
0.3122 	1.58207e-15
0.3129 	1.09781e-15
0.3136 	7.51108e-16
0.3143 	6.10328e-16
0.315 	5.14838e-16
0.3157 	4.03846e-16
0.3164 	3.00585e-16
0.3171 	2.25672e-16
0.3178 	1.5076e-16
0.3185 	9.32442e-17
0.3192 	6.90699e-17
0.3199 	5.77919e-17
0.3206 	4.51426e-17
0.3213 	3.25835e-17
0.322 	2.41693e-17
0.3227 	1.57551e-17
0.3234 	8.80249e-18
0.3241 	5.61416e-18
0.3248 	4.66128e-18
0.3255 	3.63532e-18
0.3262 	2.58011e-18
0.3269 	1.88864e-18
0.3276 	1.22516e-18
0.3283 	6.35284e-19
0.329 	3.25168e-19
0.3297 	2.67543e-19
0.3304 	2.07885e-19
0.3311 	1.46703e-19
0.3318 	1.0494e-19
0.3325 	6.84729e-20
0.3332 	3.39081e-20
0.3339 	1.21679e-20
0.3346 	9.92032e-21
0.3353 	7.6599e-21
0.336 	5.38229e-21
0.3367 	3.76214e-21
0.3374 	2.50726e-21
0.3381 	1.26285e-21
0.3388 	2.59242e-22
0.3395 	2.1002e-22
0.3402 	1.61041e-22
0.3409 	1.12668e-22
0.3416 	7.67425e-23
0.3423 	5.32659e-23
0.343 	2.97892e-23
0.3437 	4.43206e-24
0.3444 	2.1572e-24
0.3451 	1.66798e-24
0.3458 	1.16131e-24
0.3465 	7.63663e-25
0.3472 	5.62275e-25
0.3479 	3.60887e-25
0.3486 	7.64963e-26
0.3493 	9.01959e-27
0.35 	7.37381e-27
0.3507 	5.11008e-27
0.3514 	3.18732e-27
0.3521 	2.51483e-27
0.3528 	1.84235e-27
0.3535 	5.85282e-28
0.3542 	1.24096e-29
0.3549 	1.12537e-29
0.3556 	8.01854e-30
0.3563 	4.6416e-30
0.357 	3.92653e-30
0.3577 	3.21146e-30
0.3584 	1.44467e-30
0.3591 	4.33087e-33
0.3598 	4.5542e-33
0.3605 	3.50522e-33
0.3612 	1.94732e-33
0.3619 	1.66445e-33
0.3626 	1.47967e-33
0.3633 	8.86403e-34
0.364 	4.24672e-37
0.3647 	4.75983e-37
0.3654 	4.00799e-37
0.3661 	2.30744e-37
0.3668 	1.81381e-37
0.3675 	1.64937e-37
0.3682 	1.21108e-37
0.3689 	4.41993e-41
0.3696 	4.92316e-41
0.3703 	4.449e-41
0.371 	2.67163e-41
0.3717 	1.92378e-41
0.3724 	1.7479e-41
0.3731 	1.4924e-41
0.3738 	4.77015e-45
0.3745 	5.34659e-45
0.3752 	5.19659e-45
0.3759 	3.23046e-45
0.3766 	2.15169e-45
0.3773 	1.96032e-45
0.378 	1.76896e-45
0.3787 	1.27685e-46
0.3794 	5.85601e-49
0.3801 	6.12313e-49
0.3808 	3.92205e-49
0.3815 	2.43233e-49
0.3822 	2.22309e-49
0.3829 	2.01385e-49
0.3836 	4.28764e-50
0.3843 	6.33898e-53
0.385 	7.12612e-53
0.3857 	4.68644e-53
0.3864 	2.72094e-53
0.3871 	2.49422e-53
0.3878 	2.2675e-53
0.3885 	7.93492e-54
0.3892 	6.67399e-57
0.3899 	7.55974e-57
0.3906 	5.42797e-57
0.3913 	2.96433e-57
0.392 	2.72472e-57
0.3927 	2.48511e-57
0.3934 	1.202e-57
0.3941 	6.7874e-61
0.3948 	7.74449e-61
0.3955 	6.0527e-61
0.3962 	3.30135e-61
0.3969 	2.87681e-61
0.3976 	2.63129e-61
0.3983 	1.61664e-61
0.399 	6.64075e-65
0.3997 	7.63565e-65
0.4004 	6.4795e-65
0.4011 	3.71007e-65
0.4018 	2.92606e-65
0.4025 	2.68357e-65
0.4032 	1.99231e-65
0.4039 	6.25044e-69
0.4046 	7.2433e-69
0.4053 	6.65961e-69
0.406 	3.97383e-69
0.4067 	2.8661e-69
0.4074 	2.6351e-69
0.4081 	2.28706e-69
0.4088 	5.67035e-73
0.4095 	6.62755e-73
0.4102 	6.59223e-73
0.4109 	4.07556e-73
0.4116 	2.71099e-73
0.4123 	2.49858e-73
0.413 	2.28616e-73
0.4137 	1.65565e-74
0.4144 	5.86356e-77
0.4151 	6.30174e-77
0.4158 	4.01799e-77
0.4165 	2.48224e-77
0.4172 	2.29299e-77
0.4179 	2.10373e-77
0.4186 	4.50577e-78
0.4193 	5.03983e-81
0.42 	5.8501e-81
0.4207 	3.83221e-81
0.4214 	2.21158e-81
0.4221 	2.04771e-81
0.4228 	1.88384e-81
0.4235 	6.64439e-82
0.4242 	4.22356e-85
0.4249 	4.9418e-85
0.4256 	3.55141e-85
0.4263 	1.92408e-85
0.427 	1.78546e-85
0.4277 	1.64684e-85
0.4284 	8.04178e-86
0.4291 	3.46668e-89
0.4298 	4.09385e-89
0.4305 	3.2179e-89
0.4312 	1.74069e-89
0.4319 	1.52849e-89
0.4326 	1.41361e-89
0.4333 	8.78443e-90
0.434 	2.79387e-93
0.4347 	3.33195e-93
0.4354 	2.85816e-93
0.4361 	1.62547e-93
0.4368 	1.2877e-93
0.4375 	1.19401e-93
0.4382 	8.98234e-94
0.4389 	1.93146e-97
0.4396 	1.06699e-97
0.4403 	7.01702e-98
0.441 	1.00198e-97
0.4417 	1.06238e-97
0.4424 	9.89511e-98
0.4431 	8.73634e-98
0.4438 	-4.00722e-99
0.4445 	-5.45581e-98
0.4452 	-7.62262e-98
0.4459 	-2.56876e-98
0.4466 	-3.69221e-100
0.4473 	-2.72315e-100
0.448 	-1.75409e-100
0.4487 	-1.71441e-100
0.4494 	-1.54327e-98
0.4501 	-2.717e-98
0.4508 	-1.0724e-98
0.4515 	-1.38227e-100
0.4522 	-1.01551e-100
0.4529 	-6.48742e-101
0.4536 	-5.46732e-101
0.4543 	-4.04819e-99
0.455 	-9.1313e-99
0.4557 	-4.04452e-99
0.4564 	-4.51514e-101
0.4571 	-3.32753e-101
0.4578 	-2.13993e-101
0.4585 	-1.64919e-101
0.4592 	-9.8039e-100
0.4599 	-2.4801e-99
0.4606 	-1.40794e-99
0.4613 	-1.40482e-101
0.462 	-1.03978e-101
0.4627 	-6.74733e-102
0.4634 	-4.747e-102
0.4641 	-2.16052e-100
0.4648 	-6.38836e-100
0.4655 	-4.5742e-100
0.4662 	-3.43231e-101
0.4669 	-3.10466e-102
0.4676 	-2.03655e-102
0.4683 	-1.30663e-102
0.469 	-4.20296e-101
0.4697 	-1.56143e-100
0.4704 	-1.39793e-100
0.4711 	-2.55939e-101
0.4718 	-8.86996e-103
0.4725 	-5.88824e-103
0.4732 	-3.44515e-103
0.4739 	-6.6659e-102
0.4746 	-3.62151e-101
0.4753 	-4.04269e-101
0.476 	-1.08556e-101
0.4767 	-2.42809e-103
0.4774 	-1.63205e-103
0.4781 	-8.71165e-104
0.4788 	-6.08859e-103
0.4795 	-7.95869e-102
0.4802 	-1.1107e-101
0.4809 	-3.75168e-102
0.4816 	-6.37389e-104
0.4823 	-4.33886e-104
0.483 	-2.30384e-104
0.4837 	-2.02598e-104
0.4844 	-1.65256e-102
0.4851 	-2.90801e-102
0.4858 	-1.14879e-102
0.4865 	-1.60583e-104
0.4872 	-1.10721e-104
0.4879 	-6.08589e-105
0.4886 	-4.72727e-105
0.4893 	-3.22963e-103
0.49 	-7.28041e-103
0.4907 	-3.2266e-103
0.4914 	-3.88888e-105
0.4921 	-2.71528e-105
0.4928 	-1.54168e-105
0.4935 	-1.06184e-105
0.4942 	-5.89234e-104
0.4949 	-1.48955e-103
0.4956 	-8.45892e-104
0.4963 	-9.06142e-106
0.497 	-6.4041e-106
0.4977 	-3.74678e-106
0.4984 	-2.29689e-106
0.4991 	-9.87612e-105
0.4998 	-2.9179e-104
0.5005 	-2.08962e-104
0.5012 	-1.57909e-105
0.5019 	-1.453e-106
0.5026 	-8.74067e-107
0.5033 	-4.78801e-107
0.504 	-1.47297e-105
0.5047 	-5.46706e-105
0.5054 	-4.89482e-105
0.5061 	-8.97822e-106
0.5068 	-3.17321e-107
0.5075 	-1.95915e-107
0.5082 	-9.6328e-108
0.5089 	-1.8045e-106
0.5096 	-9.79197e-106
0.5103 	-1.09306e-105
0.511 	-2.93739e-106
0.5117 	-6.67982e-108
0.5124 	-4.22498e-108
0.5131 	-1.87282e-108
0.5138 	-1.28339e-107
0.5145 	-1.67403e-106
0.5152 	-2.33616e-106
0.5159 	-7.89378e-107
0.5166 	-1.35707e-108
0.5173 	-8.77687e-109
0.518 	-3.98309e-109
0.5187 	-3.35456e-109
0.5194 	-2.72207e-107
0.5201 	-4.78994e-107
0.5208 	-1.89252e-107
0.5215 	-2.66234e-109
0.5222 	-1.75788e-109
0.5229 	-8.5342e-110
0.5236 	-6.1051e-110
0.5243 	-4.19009e-108
0.525 	-9.44596e-108
0.5257 	-4.18652e-108
0.5264 	-5.05028e-110
0.5271 	-3.39947e-110
0.5278 	-1.74866e-110
0.5285 	-1.0778e-110
0.5292 	-6.05682e-109
0.5299 	-1.53137e-108
0.5306 	-8.69635e-109
0.5313 	-9.27666e-111
0.532 	-6.35901e-111
0.5327 	-3.44135e-111
0.5334 	-1.8525e-111
0.5341 	-8.11708e-110
0.5348 	-2.39896e-109
0.5355 	-1.71796e-109
0.5362 	-1.29668e-110
0.5369 	-1.15451e-111
0.5376 	-6.53458e-112
0.5383 	-3.11218e-112
0.539 	-9.80967e-111
0.5397 	-3.64325e-110
0.5404 	-3.26194e-110
0.5411 	-5.97929e-111
0.5418 	-2.04288e-112
0.5425 	-1.20192e-112
0.5432 	-5.10933e-113
0.5439 	-9.85541e-112
0.5446 	-5.35545e-111
0.5453 	-5.97854e-111
0.546 	-1.60586e-111
0.5467 	-3.52476e-113
0.5474 	-2.14317e-113
0.5481 	-8.16193e-114
0.5488 	-5.76806e-113
0.5495 	-7.56148e-112
0.5502 	-1.05537e-111
0.5509 	-3.56469e-112
0.5516 	-5.90604e-114
0.5523 	-3.6963e-114
0.553 	-1.48657e-114
0.5537 	-1.20294e-114
0.5544 	-1.0193e-112
0.5551 	-1.79406e-112
0.5558 	-7.0862e-113
0.5565 	-9.59547e-115
0.5572 	-6.16281e-115
0.5579 	-2.73015e-115
0.5586 	-1.81449e-115
0.5593 	-1.30431e-113
0.56 	-2.94149e-113
0.5607 	-1.30336e-113
0.5614 	-1.51209e-115
0.5621 	-9.94248e-116
0.5628 	-4.76407e-116
0.5635 	-2.66448e-116
0.5642 	-1.5721e-114
0.5649 	-3.97686e-114
0.5656 	-2.258e-114
0.5663 	-2.31523e-116
0.567 	-1.55536e-116
0.5677 	-7.95496e-117
0.5684 	-3.81804e-117
0.5691 	-1.7597e-115
0.5698 	-5.20465e-115
0.5705 	-3.72687e-115
0.5712 	-2.79995e-116
0.5719 	-2.36535e-117
0.5726 	-1.27852e-117
0.5733 	-5.35504e-118
0.574 	-1.77574e-116
0.5747 	-6.60273e-116
0.5754 	-5.91164e-116
0.5761 	-1.082e-116
0.5768 	-3.50777e-118
0.5775 	-1.98848e-118
0.5782 	-7.38019e-119
0.5789 	-1.49504e-117
0.5796 	-8.14116e-117
0.5803 	-9.08906e-117
0.581 	-2.43935e-117
0.5817 	-5.0954e-119
0.5824 	-3.00816e-119
0.5831 	-9.99019e-120
0.5838 	-7.37314e-119
0.5845 	-9.72688e-118
0.5852 	-1.35782e-117
0.5859 	-4.58387e-118
0.5866 	-7.25027e-120
0.5873 	-4.43177e-120
0.588 	-1.61328e-120
0.5887 	-1.25642e-120
0.5894 	-1.11854e-118
0.5901 	-1.96922e-118
0.5908 	-7.7752e-119
0.5915 	-1.00821e-120
0.5922 	-6.35425e-121
0.5929 	-2.62636e-121
0.5936 	-1.63505e-121
0.5943 	-1.23202e-119
0.595 	-2.77944e-119
0.5957 	-1.23123e-119
0.5964 	-1.37181e-121
0.5971 	-8.88417e-122
0.5978 	-4.05024e-122
0.5985 	-2.09063e-122
0.5992 	-1.29024e-120
0.5999 	-3.26534e-120
0.6006 	-1.8537e-120
0.6013 	-1.83013e-122
0.602 	-1.21411e-122
0.6027 	-5.98085e-123
0.6034 	-2.62376e-123
0.6041 	-1.26253e-121
0.6048 	-3.73646e-121
0.6055 	-2.67534e-121
0.6062 	-2.00195e-122
0.6069 	-1.6214e-123
0.6076 	-8.51021e-124
0.6083 	-3.2357e-124
0.609 	-1.11854e-122
0.6097 	-4.16284e-122
0.6104 	-3.7271e-122
0.6111 	-6.81335e-123
0.6118 	-2.11925e-124
0.6125 	-1.17248e-124
0.6132 	-3.91863e-125
0.6139 	-8.25419e-124
0.6146 	-4.50192e-123
0.6153 	-5.02639e-123
0.616 	-1.34815e-123
0.6167 	-2.71e-125
0.6174 	-1.56833e-125
0.6181 	-4.67237e-126
0.6188 	-3.56712e-125
0.6195 	-4.72793e-124
0.6202 	-6.60073e-124
0.6209 	-2.22748e-124
0.6216 	-3.40139e-126
0.6223 	-2.04535e-126
0.623 	-6.89318e-127
0.6237 	-5.18704e-127
0.6244 	-4.79537e-125
0.6251 	-8.44398e-125
0.6258 	-3.33312e-125
0.6265 	-4.18499e-127
0.6272 	-2.60145e-127
0.6279 	-1.01792e-127
0.6286 	-5.97395e-128
0.6293 	-4.66553e-126
0.63 	-1.05282e-125
0.6307 	-4.6629e-126
0.6314 	-5.04461e-128
0.6321 	-3.22877e-128
0.6328 	-1.41293e-128
0.6335 	-6.76704e-129
0.6342 	-4.31913e-127
0.6349 	-1.09344e-126
0.6356 	-6.20672e-127
0.6363 	-5.96639e-129
0.637 	-3.91919e-129
0.6377 	-1.872e-129
0.6384 	-7.55355e-130
0.6391 	-3.74996e-128
0.6398 	-1.11027e-127
0.6405 	-7.94926e-128
0.6412 	-5.93274e-129
0.6419 	-4.66414e-130
0.6426 	-2.39082e-130
0.6433 	-8.3233e-131
0.644 	-2.96045e-129
0.6447 	-1.10245e-128
0.6454 	-9.87049e-129
0.6461 	-1.80298e-129
0.6468 	-5.45474e-131
0.6475 	-2.96383e-131
0.6482 	-9.06966e-132
0.6489 	-1.96092e-130
0.6496 	-1.0706e-129
0.6503 	-1.19538e-129
0.651 	-3.2049e-130
0.6517 	-6.28435e-132
0.6524 	-3.5852e-132
0.6531 	-9.77872e-133
0.6538 	-7.63167e-132
0.6545 	-1.01449e-130
0.6552 	-1.41645e-130
0.6559 	-4.77883e-131
0.6566 	-7.13885e-133
0.6573 	-4.24624e-133
0.658 	-1.35363e-133
0.6587 	-9.90512e-134
0.6594 	-9.37194e-132
0.6601 	-1.65045e-131
0.6608 	-6.51389e-132
0.6615 	-8.02322e-134
0.6622 	-4.94827e-134
0.6629 	-1.87332e-134
0.6636 	-1.05635e-134
0.6643 	-8.42591e-133
0.665 	-1.90168e-132
0.6657 	-8.42154e-133
0.6664 	-8.95937e-135
0.6671 	-5.70471e-135
0.6678 	-2.45006e-135
0.6685 	-1.12901e-135
0.6692 	-7.3448e-134
0.6699 	-1.85976e-133
0.6706 	-1.05559e-133
0.6713 	-1.00001e-135
0.672 	-6.55317e-136
0.6727 	-3.10626e-136
0.6734 	-1.22362e-136
0.6741 	-6.1795e-135
0.6748 	-1.83e-134
0.6755 	-1.31019e-134
0.6762 	-9.76538e-136
0.6769 	-7.59686e-137
0.6776 	-3.90208e-137
0.6783 	-1.36562e-137
0.679 	-4.93156e-136
0.6797 	-1.83697e-135
0.6804 	-1.64468e-135
0.6811 	-3.00321e-136
0.6818 	-9.02759e-138
0.6825 	-4.9558e-138
0.6832 	-1.58919e-138
0.6839 	-3.47985e-137
0.6846 	-1.90052e-136
0.6853 	-2.12203e-136
0.686 	-5.6886e-137
0.6867 	-1.11196e-138
0.6874 	-6.42947e-139
0.6881 	-1.89394e-139
0.6888 	-1.49076e-138
0.6895 	-1.98256e-137
0.6902 	-2.76812e-137
0.6909 	-9.33846e-138
0.6916 	-1.38836e-139
0.6923 	-8.27793e-140
0.693 	-2.67227e-140
0.6937 	-1.95985e-140
0.6944 	-1.85191e-138
0.6951 	-3.26129e-138
0.6958 	-1.28706e-138
0.6965 	-1.56655e-140
0.6972 	-9.45555e-141
0.6979 	-3.24561e-141
0.6986 	-1.5861e-141
0.6993 	-1.51073e-141
0.7 	-1.4488e-141
