0 	1
0.0007 	1
0.0014 	1
0.0021 	1
0.0028 	1
0.0035 	1
0.0042 	1
0.0049 	1
0.0056 	1
0.0063 	1
0.007 	1
0.0077 	1
0.0084 	1
0.0091 	1
0.0098 	1
0.0105 	1
0.0112 	1
0.0119 	1
0.0126 	1
0.0133 	1
0.014 	1
0.0147 	1
0.0154 	1
0.0161 	1
0.0168 	1
0.0175 	1
0.0182 	1
0.0189 	1
0.0196 	1
0.0203 	1
0.021 	1
0.0217 	1
0.0224 	1
0.0231 	1
0.0238 	1
0.0245 	1
0.0252 	1
0.0259 	1
0.0266 	1
0.0273 	1
0.028 	1
0.0287 	1
0.0294 	1
0.0301 	1
0.0308 	1
0.0315 	1
0.0322 	1
0.0329 	1
0.0336 	1
0.0343 	1
0.035 	1
0.0357 	1
0.0364 	1
0.0371 	1
0.0378 	1
0.0385 	1
0.0392 	1
0.0399 	1
0.0406 	1
0.0413 	1
0.042 	1
0.0427 	1
0.0434 	1
0.0441 	1
0.0448 	1
0.0455 	1
0.0462 	1
0.0469 	1
0.0476 	1
0.0483 	1
0.049 	1
0.0497 	1
0.0504 	1
0.0511 	1
0.0518 	1
0.0525 	1
0.0532 	1
0.0539 	1
0.0546 	1
0.0553 	1
0.056 	1
0.0567 	1
0.0574 	1
0.0581 	1
0.0588 	1
0.0595 	1
0.0602 	1
0.0609 	1
0.0616 	1
0.0623 	1
0.063 	1
0.0637 	1
0.0644 	1
0.0651 	1
0.0658 	1
0.0665 	1
0.0672 	1
0.0679 	1
0.0686 	1
0.0693 	1
0.07 	1
0.0707 	1
0.0714 	1
0.0721 	1
0.0728 	1
0.0735 	1
0.0742 	1
0.0749 	1
0.0756 	1
0.0763 	1
0.077 	1
0.0777 	1
0.0784 	1
0.0791 	1
0.0798 	1
0.0805 	1
0.0812 	1
0.0819 	1
0.0826 	1
0.0833 	1
0.084 	1
0.0847 	1
0.0854 	1
0.0861 	1
0.0868 	1
0.0875 	1
0.0882 	1
0.0889 	1
0.0896 	1
0.0903 	1
0.091 	1
0.0917 	1
0.0924 	1
0.0931 	1
0.0938 	1
0.0945 	1
0.0952 	1
0.0959 	1
0.0966 	1
0.0973 	1
0.098 	1
0.0987 	1
0.0994 	1
0.1001 	1
0.1008 	1
0.1015 	1
0.1022 	1
0.1029 	1
0.1036 	1
0.1043 	1
0.105 	1
0.1057 	1
0.1064 	1
0.1071 	1
0.1078 	1
0.1085 	1
0.1092 	1
0.1099 	1
0.1106 	1
0.1113 	1
0.112 	1
0.1127 	1
0.1134 	1
0.1141 	1
0.1148 	1
0.1155 	1
0.1162 	1
0.1169 	1
0.1176 	1
0.1183 	1
0.119 	1
0.1197 	1
0.1204 	1
0.1211 	1
0.1218 	1
0.1225 	1
0.1232 	1
0.1239 	1
0.1246 	1
0.1253 	1
0.126 	1
0.1267 	1
0.1274 	1
0.1281 	1
0.1288 	1
0.1295 	1
0.1302 	1
0.1309 	1
0.1316 	1
0.1323 	1
0.133 	1
0.1337 	1
0.1344 	1
0.1351 	1
0.1358 	1
0.1365 	1
0.1372 	1
0.1379 	1
0.1386 	1
0.1393 	1
0.14 	1
0.1407 	1
0.1414 	1
0.1421 	1
0.1428 	1
0.1435 	1
0.1442 	1
0.1449 	1
0.1456 	1
0.1463 	1
0.147 	1
0.1477 	1
0.1484 	1
0.1491 	1
0.1498 	1
0.1505 	1
0.1512 	1
0.1519 	1
0.1526 	1
0.1533 	1
0.154 	1
0.1547 	1
0.1554 	1
0.1561 	1
0.1568 	1
0.1575 	1
0.1582 	1
0.1589 	1
0.1596 	1
0.1603 	1
0.161 	1
0.1617 	1
0.1624 	1
0.1631 	1
0.1638 	1
0.1645 	1
0.1652 	1
0.1659 	1
0.1666 	1
0.1673 	1
0.168 	1
0.1687 	1
0.1694 	1
0.1701 	1
0.1708 	1
0.1715 	1
0.1722 	1
0.1729 	1
0.1736 	1
0.1743 	1
0.175 	1
0.1757 	1
0.1764 	1
0.1771 	1
0.1778 	1
0.1785 	1
0.1792 	1
0.1799 	1
0.1806 	1
0.1813 	1
0.182 	1
0.1827 	1
0.1834 	1
0.1841 	1
0.1848 	1
0.1855 	1
0.1862 	1
0.1869 	1
0.1876 	1
0.1883 	1
0.189 	1
0.1897 	1
0.1904 	1
0.1911 	1
0.1918 	1
0.1925 	1
0.1932 	1
0.1939 	1
0.1946 	1
0.1953 	1
0.196 	1
0.1967 	1
0.1974 	1
0.1981 	1
0.1988 	1
0.1995 	1
0.2002 	1
0.2009 	1
0.2016 	1
0.2023 	1
0.203 	1
0.2037 	1
0.2044 	1
0.2051 	1
0.2058 	1
0.2065 	1
0.2072 	1
0.2079 	1
0.2086 	1
0.2093 	1
0.21 	1
0.2107 	1
0.2114 	1
0.2121 	1
0.2128 	1
0.2135 	1
0.2142 	1
0.2149 	1
0.2156 	1
0.2163 	1
0.217 	1
0.2177 	1
0.2184 	1
0.2191 	1
0.2198 	1
0.2205 	1
0.2212 	1
0.2219 	1
0.2226 	1
0.2233 	1
0.224 	1
0.2247 	1
0.2254 	1
0.2261 	1
0.2268 	1
0.2275 	1
0.2282 	1
0.2289 	1
0.2296 	1
0.2303 	1
0.231 	1
0.2317 	1
0.2324 	1
0.2331 	1
0.2338 	1
0.2345 	1
0.2352 	1
0.2359 	1
0.2366 	1
0.2373 	1
0.238 	1
0.2387 	1
0.2394 	1
0.2401 	1
0.2408 	1
0.2415 	1
0.2422 	1
0.2429 	0.999999
0.2436 	0.999999
0.2443 	0.999999
0.245 	0.999999
0.2457 	0.999999
0.2464 	0.999997
0.2471 	0.999995
0.2478 	0.999993
0.2485 	0.99999
0.2492 	0.999988
0.2499 	0.999985
0.2506 	0.999984
0.2513 	0.999971
0.252 	0.999944
0.2527 	0.999918
0.2534 	0.999891
0.2541 	0.999864
0.2548 	0.999831
0.2555 	0.999818
0.2562 	0.999697
0.2569 	0.999353
0.2576 	0.999008
0.2583 	0.998664
0.259 	0.998319
0.2597 	0.997909
0.2604 	0.997719
0.2611 	0.996555
0.2618 	0.990768
0.2625 	0.984981
0.2632 	0.979194
0.2639 	0.973406
0.2646 	0.966742
0.2653 	0.962776
0.266 	0.960666
0.2667 	0.923587
0.2674 	0.886506
0.2681 	0.849424
0.2688 	0.812342
0.2695 	0.765058
0.2702 	0.71682
0.2709 	0.679359
0.2716 	0.621778
0.2723 	0.562248
0.273 	0.502718
0.2737 	0.443188
0.2744 	0.375905
0.2751 	0.30113
0.2758 	0.224849
0.2765 	0.182265
0.2772 	0.149839
0.2779 	0.117413
0.2786 	0.0849869
0.2793 	0.0611984
0.28 	0.0518314
0.2807 	0.0305405
0.2814 	0.0196511
0.2821 	0.0149978
0.2828 	0.0103445
0.2835 	0.00569114
0.2842 	0.00217145
0.2849 	0.00240282
0.2856 	0.00131547
0.2863 	0.000569377
0.287 	0.000426258
0.2877 	0.000283138
0.2884 	0.000140019
0.2891 	1.06611e-05
0.2898 	2.11693e-05
0.2905 	1.30802e-05
0.2912 	2.59692e-06
0.2919 	1.95743e-06
0.2926 	1.31804e-06
0.2933 	6.78651e-07
0.294 	3.92644e-08
0.2947 	2.48881e-08
0.2954 	2.03469e-08
0.2961 	1.49016e-09
0.2968 	1.13667e-09
0.2975 	7.83427e-10
0.2982 	4.30186e-10
0.2989 	7.69447e-11
0.2996 	1.19968e-11
0.3003 	1.27772e-11
0.301 	8.11276e-12
0.3017 	8.38469e-12
0.3024 	8.6565e-12
0.3031 	8.92831e-12
0.3038 	9.20013e-12
0.3045 	9.55778e-12
0.3052 	9.87055e-12
0.3059 	9.96158e-12
0.3066 	9.94958e-12
0.3073 	9.92716e-12
0.308 	9.90474e-12
0.3087 	9.88231e-12
0.3094 	9.87672e-12
0.3101 	9.86785e-12
0.3108 	9.74596e-12
0.3115 	9.42995e-12
0.3122 	9.0546e-12
0.3129 	8.67925e-12
0.3136 	8.3039e-12
0.3143 	7.94418e-12
0.315 	7.61026e-12
0.3157 	7.30581e-12
0.3164 	6.88417e-12
0.3171 	6.39164e-12
0.3178 	5.89911e-12
0.3185 	5.40659e-12
0.3192 	4.91895e-12
0.3199 	4.44723e-12
0.3206 	4.0086e-12
0.3213 	3.61642e-12
0.322 	3.26895e-12
0.3227 	2.92149e-12
0.3234 	2.57402e-12
0.3241 	2.23362e-12
0.3248 	1.96284e-12
0.3255 	1.64007e-12
0.3262 	1.36009e-12
0.3269 	1.20589e-12
0.3276 	1.05171e-12
0.3283 	8.97524e-13
0.329 	7.43339e-13
0.3297 	6.6107e-13
0.3304 	5.31537e-13
0.3311 	3.86552e-13
0.3318 	3.37222e-13
0.3325 	2.87909e-13
0.3332 	2.38596e-13
0.3339 	1.89283e-13
0.3346 	1.6985e-13
0.3353 	1.39728e-13
0.336 	8.79178e-14
0.3367 	7.57352e-14
0.3374 	6.35573e-14
0.3381 	5.13795e-14
0.3388 	3.92016e-14
0.3395 	3.42666e-14
0.3402 	2.99648e-14
0.3409 	1.81202e-14
0.3416 	1.47725e-14
0.3423 	1.23019e-14
0.343 	9.83125e-15
0.3437 	7.36063e-15
0.3444 	6.02038e-15
0.3451 	5.4754e-15
0.3458 	3.50302e-15
0.3465 	2.68893e-15
0.3472 	2.23371e-15
0.3479 	1.77849e-15
0.3486 	1.32327e-15
0.3493 	1.00366e-15
0.35 	9.05258e-16
0.3507 	6.01637e-16
0.3514 	4.38388e-16
0.3521 	3.60967e-16
0.3528 	2.83547e-16
0.3535 	2.06126e-16
0.3542 	1.43072e-16
0.3549 	1.26111e-16
0.3556 	8.37932e-17
0.3563 	5.44374e-17
0.357 	4.38963e-17
0.3577 	3.33552e-17
0.3584 	2.28141e-17
0.3591 	1.32028e-17
0.3598 	1.24285e-17
0.3605 	8.22084e-18
0.3612 	4.20072e-18
0.3619 	3.29596e-18
0.3626 	2.39056e-18
0.3633 	1.48517e-18
0.364 	5.79776e-19
0.3647 	6.39129e-19
0.3654 	4.68497e-19
0.3661 	1.54841e-19
0.3668 	1.19501e-19
0.3675 	8.40687e-20
0.3682 	4.86359e-20
0.3689 	1.32032e-20
0.3696 	1.25788e-20
0.3703 	1.222e-20
0.371 	1.84212e-21
0.3717 	1.42235e-21
0.3724 	1.00022e-21
0.3731 	5.78091e-22
0.3738 	1.55964e-22
0.3745 	7.23504e-23
0.3752 	1.06306e-22
0.3759 	1.35132e-23
0.3766 	3.61981e-24
0.3773 	2.59335e-24
0.378 	1.56689e-24
0.3787 	5.40427e-25
0.3794 	1.35033e-25
0.3801 	2.42755e-25
0.3808 	6.53185e-26
0.3815 	2.00095e-26
0.3822 	1.64022e-26
0.3829 	1.27949e-26
0.3836 	9.18759e-27
0.3843 	7.15411e-27
0.385 	7.65414e-27
0.3857 	4.27141e-27
0.3864 	2.68593e-27
0.3871 	2.21274e-27
0.3878 	1.73956e-27
0.3885 	1.26637e-27
0.3892 	9.39987e-28
0.3899 	1.07648e-27
0.3906 	6.09934e-28
0.3913 	2.83286e-28
0.392 	2.23186e-28
0.3927 	1.63086e-28
0.3934 	1.02986e-28
0.3941 	5.28427e-29
0.3948 	9.39344e-29
0.3955 	5.8599e-29
0.3962 	1.34164e-29
0.3969 	1.02442e-29
0.3976 	7.06688e-30
0.3983 	3.88957e-30
0.399 	7.12272e-31
0.3997 	3.10662e-30
0.4004 	2.55905e-30
0.4011 	1.56002e-31
0.4018 	1.19109e-31
0.4025 	8.19998e-32
0.4032 	4.48905e-32
0.4039 	7.78126e-33
0.4046 	2.39084e-32
0.4053 	2.77638e-32
0.406 	2.42065e-34
0.4067 	1.86679e-34
0.4074 	1.30631e-34
0.4081 	7.45838e-35
0.4088 	1.85363e-35
0.4095 	2.42731e-35
0.4102 	3.96849e-35
0.4109 	3.63646e-36
0.4116 	2.49256e-38
0.4123 	1.77461e-38
0.413 	1.05665e-38
0.4137 	3.38698e-39
0.4144 	2.05172e-39
0.4151 	4.81632e-39
0.4158 	9.43686e-40
0.4165 	1.06245e-42
0.4172 	7.6848e-43
0.4179 	4.74508e-43
0.4186 	1.80535e-43
0.4193 	6.31983e-44
0.42 	2.26231e-43
0.4207 	6.31243e-44
0.4214 	4.50626e-47
0.4221 	3.30667e-47
0.4228 	2.10708e-47
0.4235 	9.07494e-48
0.4242 	1.71076e-48
0.4249 	8.68668e-48
0.4256 	3.70128e-48
0.4263 	1.94036e-51
0.427 	1.44269e-51
0.4277 	9.4502e-52
0.4284 	4.47348e-52
0.4291 	3.14239e-53
0.4298 	3.37025e-52
0.4305 	2.05963e-52
0.4312 	8.45831e-56
0.4319 	6.36963e-56
0.4326 	4.27522e-56
0.4333 	2.1808e-56
0.434 	8.63948e-58
0.4347 	1.29796e-56
0.4354 	1.1046e-56
0.4361 	3.67887e-60
0.4368 	2.80498e-60
0.4375 	1.92391e-60
0.4382 	1.04284e-60
0.4389 	1.61772e-61
0.4396 	4.85213e-61
0.4403 	5.69862e-61
0.441 	1.57888e-64
0.4417 	1.21772e-64
0.4424 	8.51595e-65
0.4431 	4.8547e-65
0.4438 	1.19344e-65
0.4445 	1.73202e-65
0.4452 	2.83054e-65
0.4459 	2.65906e-66
0.4466 	5.19507e-69
0.4473 	3.69721e-69
0.448 	2.19935e-69
0.4487 	7.01484e-70
0.4494 	5.82308e-70
0.4501 	1.36239e-69
0.4508 	2.69871e-70
0.4515 	2.18478e-73
0.4522 	1.57969e-73
0.4529 	9.74604e-74
0.4536 	3.69517e-74
0.4543 	1.80099e-74
0.455 	6.41007e-74
0.4557 	1.79968e-74
0.4564 	9.03418e-78
0.4571 	6.60823e-78
0.4578 	4.18228e-78
0.4585 	1.75633e-78
0.4592 	3.66839e-79
0.4599 	2.12746e-78
0.4606 	8.68351e-79
0.4613 	-1.75615e-79
0.462 	-1.76223e-79
0.4627 	-1.76832e-79
0.4634 	-1.77441e-79
0.4641 	-2.24046e-79
0.4648 	-6.61882e-79
0.4655 	-4.75793e-79
0.4662 	-2.59967e-79
0.4669 	-2.78032e-79
0.4676 	-2.78677e-79
0.4683 	-2.79323e-79
0.469 	-2.79968e-79
0.4697 	-9.38071e-79
0.4704 	-8.41797e-79
0.4711 	-3.22795e-79
0.4718 	-3.70481e-79
0.4725 	-3.71116e-79
0.4732 	-3.71751e-79
0.4739 	-3.72387e-79
0.4746 	-1.1149e-78
0.4753 	-1.24515e-78
0.476 	-3.81296e-79
0.4767 	-4.38273e-79
0.4774 	-4.38789e-79
0.4781 	-4.39304e-79
0.4788 	-4.39819e-79
0.4795 	-1.16181e-78
0.4802 	-1.61853e-78
0.4809 	-5.55789e-79
0.4816 	-4.6943e-79
0.4823 	-4.69723e-79
0.483 	-4.70017e-79
0.4837 	-4.7031e-79
0.4844 	-1.07799e-78
0.4851 	-1.88819e-78
0.4858 	-7.55012e-79
0.4865 	-4.60681e-79
0.4872 	-4.607e-79
0.4879 	-4.60718e-79
0.4886 	-4.60736e-79
0.4893 	-8.96173e-79
0.49 	-2.00318e-78
0.4907 	-8.96118e-79
0.4914 	-4.17787e-79
0.4921 	-4.17543e-79
0.4928 	-4.17298e-79
0.4935 	-4.17054e-79
0.4942 	-6.67443e-79
0.4949 	-1.66592e-78
0.4956 	-9.51939e-79
0.4963 	-3.525e-79
0.497 	-3.5206e-79
0.4977 	-3.51621e-79
0.4984 	-3.51181e-79
0.4991 	-4.41745e-79
0.4998 	-1.2795e-78
0.5005 	-9.19392e-79
0.5012 	-2.91047e-79
0.5019 	-2.77702e-79
0.5026 	-2.77161e-79
0.5033 	-2.7662e-79
0.504 	-2.76078e-79
0.5047 	-9.11319e-79
0.5054 	-8.16392e-79
0.5061 	-2.4316e-79
0.5068 	-2.0589e-79
0.5075 	-2.05338e-79
0.5082 	-2.04785e-79
0.5089 	-2.04233e-79
0.5096 	-6.03642e-79
0.5103 	-6.72186e-79
0.511 	-1.96787e-79
0.5117 	-1.44064e-79
0.5124 	-1.43568e-79
0.5131 	-1.43071e-79
0.5138 	-1.42575e-79
0.5145 	-3.72417e-79
0.5152 	-5.1665e-79
0.5159 	-1.77621e-79
0.5166 	-9.54761e-80
0.5173 	-9.50717e-80
0.518 	-9.46673e-80
0.5187 	-9.42629e-80
0.5194 	-2.13998e-79
0.5201 	-3.72748e-79
0.5208 	-1.49085e-79
0.5215 	-6.01211e-80
0.5222 	-5.98175e-80
0.5229 	-5.9514e-80
0.5236 	-5.92105e-80
0.5243 	-1.14283e-79
0.525 	-2.53603e-79
0.5257 	-1.13424e-79
0.5264 	-3.60727e-80
0.5271 	-3.58605e-80
0.5278 	-3.56483e-80
0.5285 	-3.54362e-80
0.5292 	-5.64061e-80
0.5299 	-1.39523e-79
0.5306 	-7.96534e-80
0.5313 	-2.06752e-80
0.532 	-2.0536e-80
0.5327 	-2.03968e-80
0.5334 	-2.02576e-80
0.5341 	-2.54284e-80
0.5348 	-7.27894e-80
0.5355 	-5.22253e-80
0.5362 	-1.28606e-80
0.5369 	-1.12594e-80
0.5376 	-1.11732e-80
0.5383 	-1.10869e-80
0.539 	-1.10007e-80
0.5397 	-3.60417e-80
0.5404 	-3.22222e-80
0.5411 	-8.56965e-81
0.5418 	-5.92254e-81
0.5425 	-5.8719e-81
0.5432 	-5.82127e-81
0.5439 	-5.77063e-81
0.5446 	-1.69412e-80
0.5453 	-1.8817e-80
0.546 	-5.37983e-81
0.5467 	-2.99438e-81
0.5474 	-2.96607e-81
0.5481 	-2.93776e-81
0.5488 	-2.90945e-81
0.5495 	-7.55434e-81
0.5502 	-1.04478e-80
0.5509 	-3.57867e-81
0.5516 	-1.45763e-81
0.5523 	-1.44251e-81
0.553 	-1.4274e-81
0.5537 	-1.41229e-81
0.5544 	-3.18971e-81
0.5551 	-5.53551e-81
0.5558 	-2.20715e-81
0.5565 	-6.8423e-82
0.5572 	-6.76505e-82
0.5579 	-6.6878e-82
0.5586 	-6.61055e-82
0.5593 	-1.27053e-81
0.56 	-2.80706e-81
0.5607 	-1.25209e-81
0.5614 	-3.10163e-82
0.5621 	-3.06373e-82
0.5628 	-3.02584e-82
0.5635 	-2.98795e-82
0.5642 	-4.74139e-82
0.5649 	-1.16673e-81
0.5656 	-6.64433e-82
0.5663 	-1.35949e-82
0.567 	-1.34162e-82
0.5677 	-1.32374e-82
0.5684 	-1.30587e-82
0.5691 	-1.63653e-82
0.5698 	-4.6549e-82
0.5705 	-3.33209e-82
0.5712 	-6.97972e-83
0.5719 	-5.68759e-83
0.5726 	-5.60637e-83
0.5733 	-5.52515e-83
0.574 	-5.44393e-83
0.5747 	-1.78231e-82
0.5754 	-1.58999e-82
0.5761 	-3.9356e-83
0.5768 	-2.33688e-83
0.5775 	-2.30127e-83
0.5782 	-2.26566e-83
0.5789 	-2.23004e-83
0.5796 	-6.5444e-83
0.5803 	-7.25454e-83
0.581 	-2.03072e-83
0.5817 	-9.31545e-84
0.5824 	-9.16456e-84
0.5831 	-9.01367e-84
0.5838 	-8.86278e-84
0.5845 	-2.30099e-83
0.5852 	-3.17661e-83
0.5859 	-1.07922e-83
0.5866 	-3.6062e-84
0.5873 	-3.54434e-84
0.588 	-3.48248e-84
0.5887 	-3.42062e-84
0.5894 	-7.72639e-84
0.5901 	-1.33881e-83
0.5908 	-5.30449e-84
0.5915 	-1.35696e-84
0.5922 	-1.33239e-84
0.5929 	-1.30782e-84
0.5936 	-1.28325e-84
0.5943 	-2.46681e-84
0.595 	-5.44382e-84
0.5957 	-2.41572e-84
0.5964 	-4.96729e-85
0.5971 	-4.87264e-85
0.5978 	-4.778e-85
0.5985 	-4.68335e-85
0.5992 	-7.43214e-85
0.5999 	-1.8273e-84
0.6006 	-1.03639e-84
0.6013 	-1.77031e-85
0.602 	-1.73491e-85
0.6027 	-1.69951e-85
0.6034 	-1.66412e-85
0.6041 	-2.0846e-85
0.6048 	-5.92785e-85
0.6055 	-4.23003e-85
0.6062 	-7.85453e-86
0.6069 	-6.01851e-86
0.6076 	-5.88986e-86
0.6083 	-5.76122e-86
0.609 	-5.63257e-86
0.6097 	-1.85725e-85
0.6104 	-1.65312e-85
0.6111 	-3.86668e-86
0.6118 	-2.03563e-86
0.6125 	-1.99016e-86
0.6132 	-1.94468e-86
0.6139 	-1.8992e-86
0.6146 	-5.61308e-86
0.6153 	-6.21388e-86
0.616 	-1.69768e-86
0.6167 	-6.71719e-87
0.6174 	-6.56071e-87
0.6181 	-6.40422e-87
0.6188 	-6.24774e-87
0.6195 	-1.63323e-86
0.6202 	-2.25405e-86
0.6209 	-7.55779e-87
0.6216 	-2.16379e-87
0.6223 	-2.11134e-87
0.623 	-2.05889e-87
0.6237 	-2.00644e-87
0.6244 	-4.56115e-87
0.6251 	-7.91077e-87
0.6258 	-3.10334e-87
0.6265 	-6.80818e-88
0.6272 	-6.63678e-88
0.6279 	-6.46538e-88
0.6286 	-6.29399e-88
0.6293 	-1.21662e-87
0.63 	-2.69164e-87
0.6307 	-1.18502e-87
0.6314 	-2.09345e-88
0.6321 	-2.03882e-88
0.6328 	-1.98419e-88
0.6335 	-1.92955e-88
0.6342 	-3.07445e-88
0.6349 	-7.58952e-88
0.6356 	-4.27952e-88
0.6363 	-6.29402e-89
0.637 	-6.12405e-89
0.6377 	-5.95408e-89
0.6384 	-5.7841e-89
0.6391 	-7.2556e-89
0.6398 	-2.07688e-88
0.6405 	-1.47606e-88
0.6412 	-2.47884e-89
0.6419 	-1.79946e-89
0.6426 	-1.74781e-89
0.6433 	-1.69617e-89
0.644 	-1.64453e-89
0.6447 	-5.5103e-89
0.6454 	-4.89324e-89
0.6461 	-1.08594e-89
0.6468 	-5.17465e-90
0.6475 	-5.02132e-90
0.6482 	-4.86799e-90
0.6489 	-4.71467e-90
0.6496 	-1.4153e-89
0.6503 	-1.56587e-89
0.651 	-4.14951e-90
0.6517 	-1.45693e-90
0.6524 	-1.41243e-90
0.6531 	-1.36792e-90
0.6538 	-1.32342e-90
0.6545 	-3.51116e-90
0.6552 	-4.8523e-90
0.6559 	-1.59656e-90
0.6566 	-4.01777e-91
0.6573 	-3.89144e-91
0.658 	-3.7651e-91
0.6587 	-3.63877e-91
0.6594 	-8.38482e-91
0.6601 	-1.45953e-90
0.6608 	-5.64614e-91
0.6615 	-1.08564e-91
0.6622 	-1.05055e-91
0.6629 	-1.01545e-91
0.6636 	-9.8036e-92
0.6643 	-1.91719e-91
0.665 	-4.26936e-91
0.6657 	-1.85915e-91
0.6664 	-2.87537e-92
0.6671 	-2.77995e-92
0.6678 	-2.68453e-92
0.6685 	-2.5891e-92
0.6692 	-4.16076e-92
0.6699 	-1.03677e-91
0.6706 	-5.8009e-92
0.6713 	-7.46724e-93
0.672 	-7.21313e-93
0.6727 	-6.95903e-93
0.6734 	-6.70492e-93
0.6741 	-8.43928e-93
0.6748 	-2.44992e-92
0.6755 	-1.73249e-92
0.6762 	-2.65469e-93
0.6769 	-1.83577e-93
0.6776 	-1.76948e-93
0.6783 	-1.70319e-93
0.679 	-1.6369e-93
0.6797 	-5.62664e-93
0.6804 	-4.98444e-93
0.6811 	-1.04782e-93
0.6818 	-4.58413e-94
0.6825 	-4.41466e-94
0.6832 	-4.2452e-94
0.6839 	-4.07573e-94
0.6846 	-1.25379e-93
0.6853 	-1.38743e-93
0.686 	-3.53795e-94
0.6867 	-1.1235e-94
0.6874 	-1.08102e-94
0.6881 	-1.03855e-94
0.6888 	-9.96078e-95
0.6895 	-2.70386e-94
0.6902 	-3.74807e-94
0.6909 	-1.20269e-94
0.6916 	-2.70321e-95
0.6923 	-2.59882e-95
0.693 	-2.49443e-95
0.6937 	-2.39004e-95
0.6944 	-5.62212e-95
0.6951 	-9.84929e-95
0.6958 	-3.74124e-95
0.6965 	-9.21239e-96
0.6972 	-9.00897e-96
0.6979 	-8.80555e-96
0.6986 	-8.60213e-96
0.6993 	-1.78952e-95
0.7 	-4.09499e-95
