0 	1
0.0007 	1
0.0014 	1
0.0021 	1
0.0028 	1
0.0035 	1
0.0042 	1
0.0049 	1
0.0056 	1
0.0063 	1
0.007 	1
0.0077 	1
0.0084 	1
0.0091 	1
0.0098 	1
0.0105 	1
0.0112 	1
0.0119 	1
0.0126 	1
0.0133 	1
0.014 	1
0.0147 	1
0.0154 	1
0.0161 	1
0.0168 	1
0.0175 	1
0.0182 	1
0.0189 	1
0.0196 	1
0.0203 	1
0.021 	1
0.0217 	1
0.0224 	1
0.0231 	1
0.0238 	1
0.0245 	1
0.0252 	1
0.0259 	1
0.0266 	1
0.0273 	1
0.028 	1
0.0287 	1
0.0294 	1
0.0301 	1
0.0308 	1
0.0315 	1
0.0322 	1
0.0329 	1
0.0336 	1
0.0343 	1
0.035 	1
0.0357 	1
0.0364 	1
0.0371 	1
0.0378 	1
0.0385 	1
0.0392 	1
0.0399 	1
0.0406 	1
0.0413 	1
0.042 	1
0.0427 	1
0.0434 	1
0.0441 	1
0.0448 	1
0.0455 	1
0.0462 	1
0.0469 	1
0.0476 	1
0.0483 	1
0.049 	1
0.0497 	1
0.0504 	1
0.0511 	1
0.0518 	1
0.0525 	1
0.0532 	1
0.0539 	1
0.0546 	1
0.0553 	1
0.056 	1
0.0567 	1
0.0574 	1
0.0581 	1
0.0588 	1
0.0595 	1
0.0602 	1
0.0609 	1
0.0616 	1
0.0623 	1
0.063 	1
0.0637 	1
0.0644 	1
0.0651 	1
0.0658 	1
0.0665 	1
0.0672 	1
0.0679 	1
0.0686 	1
0.0693 	1
0.07 	1
0.0707 	1
0.0714 	1
0.0721 	1
0.0728 	1
0.0735 	1
0.0742 	1
0.0749 	1
0.0756 	1
0.0763 	1
0.077 	1
0.0777 	1
0.0784 	1
0.0791 	1
0.0798 	1
0.0805 	1
0.0812 	1
0.0819 	1
0.0826 	1
0.0833 	1
0.084 	1
0.0847 	1
0.0854 	1
0.0861 	1
0.0868 	1
0.0875 	1
0.0882 	1
0.0889 	1
0.0896 	1
0.0903 	1
0.091 	1
0.0917 	1
0.0924 	1
0.0931 	1
0.0938 	1
0.0945 	1
0.0952 	1
0.0959 	1
0.0966 	1
0.0973 	1
0.098 	1
0.0987 	1
0.0994 	1
0.1001 	1
0.1008 	1
0.1015 	1
0.1022 	1
0.1029 	1
0.1036 	1
0.1043 	1
0.105 	1
0.1057 	1
0.1064 	1
0.1071 	1
0.1078 	1
0.1085 	1
0.1092 	1
0.1099 	1
0.1106 	1
0.1113 	1
0.112 	1
0.1127 	1
0.1134 	1
0.1141 	1
0.1148 	1
0.1155 	1
0.1162 	1
0.1169 	1
0.1176 	1
0.1183 	1
0.119 	1
0.1197 	1
0.1204 	1
0.1211 	1
0.1218 	1
0.1225 	1
0.1232 	1
0.1239 	1
0.1246 	1
0.1253 	1
0.126 	1
0.1267 	1
0.1274 	1
0.1281 	1
0.1288 	1
0.1295 	1
0.1302 	1
0.1309 	1
0.1316 	1
0.1323 	1
0.133 	1
0.1337 	1
0.1344 	1
0.1351 	1
0.1358 	1
0.1365 	1
0.1372 	1
0.1379 	1
0.1386 	1
0.1393 	1
0.14 	1
0.1407 	1
0.1414 	1
0.1421 	1
0.1428 	1
0.1435 	1
0.1442 	1
0.1449 	1
0.1456 	1
0.1463 	1
0.147 	1
0.1477 	1
0.1484 	1
0.1491 	1
0.1498 	1
0.1505 	1
0.1512 	1
0.1519 	1
0.1526 	1
0.1533 	1
0.154 	1
0.1547 	1
0.1554 	1
0.1561 	1
0.1568 	1
0.1575 	1
0.1582 	1
0.1589 	1
0.1596 	1
0.1603 	1
0.161 	1
0.1617 	1
0.1624 	1
0.1631 	1
0.1638 	1
0.1645 	1
0.1652 	1
0.1659 	1
0.1666 	1
0.1673 	1
0.168 	1
0.1687 	1
0.1694 	1
0.1701 	1
0.1708 	1
0.1715 	1
0.1722 	1
0.1729 	1
0.1736 	1
0.1743 	1
0.175 	1
0.1757 	1
0.1764 	1
0.1771 	1
0.1778 	1
0.1785 	1
0.1792 	1
0.1799 	1
0.1806 	1
0.1813 	1
0.182 	1
0.1827 	1
0.1834 	1
0.1841 	1
0.1848 	1
0.1855 	1
0.1862 	1
0.1869 	1
0.1876 	1
0.1883 	1
0.189 	1
0.1897 	1
0.1904 	1
0.1911 	1
0.1918 	1
0.1925 	1
0.1932 	1
0.1939 	1
0.1946 	1
0.1953 	1
0.196 	1
0.1967 	1
0.1974 	1
0.1981 	1
0.1988 	1
0.1995 	1
0.2002 	1
0.2009 	1
0.2016 	1
0.2023 	1
0.203 	1
0.2037 	1
0.2044 	1
0.2051 	1
0.2058 	1
0.2065 	0.999997
0.2072 	0.999992
0.2079 	0.999987
0.2086 	0.999983
0.2093 	0.999972
0.21 	0.999961
0.2107 	0.99995
0.2114 	0.999759
0.2121 	0.999022
0.2128 	0.99835
0.2135 	0.997677
0.2142 	0.996465
0.2149 	0.994953
0.2156 	0.993471
0.2163 	0.990988
0.217 	0.976377
0.2177 	0.962724
0.2184 	0.949072
0.2191 	0.928373
0.2198 	0.900628
0.2205 	0.873077
0.2212 	0.845603
0.2219 	0.790817
0.2226 	0.735223
0.2233 	0.67963
0.224 	0.61324
0.2247 	0.527416
0.2254 	0.441572
0.2261 	0.355711
0.2268 	0.294458
0.2275 	0.238605
0.2282 	0.182751
0.2289 	0.133717
0.2296 	0.109689
0.2303 	0.0855335
0.231 	0.0612076
0.2317 	0.0449955
0.2324 	0.0312848
0.2331 	0.0175741
0.2338 	0.00478457
0.2345 	0.00397179
0.2352 	0.00315172
0.2359 	0.00231345
0.2366 	0.00170107
0.2373 	0.00122029
0.238 	0.000733184
0.2387 	0.000246076
0.2394 	0.000178463
0.2401 	0.00014299
0.2408 	0.00010672
0.2415 	7.73417e-05
0.2422 	5.71183e-05
0.2429 	3.6064e-05
0.2436 	1.50098e-05
0.2443 	9.1171e-06
0.245 	7.35953e-06
0.2457 	5.55334e-06
0.2464 	3.95405e-06
0.2471 	2.97629e-06
0.2478 	1.92655e-06
0.2485 	8.76803e-07
0.2492 	4.477e-07
0.2499 	3.63407e-07
0.2506 	2.77085e-07
0.2513 	1.93743e-07
0.252 	1.48358e-07
0.2527 	9.80992e-08
0.2534 	4.78408e-08
0.2541 	2.07976e-08
0.2548 	1.69703e-08
0.2555 	1.30676e-08
0.2562 	9.13477e-09
0.2569 	6.99205e-09
0.2576 	4.72109e-09
0.2583 	2.45014e-09
0.259 	9.31042e-10
0.2597 	7.65328e-10
0.2604 	5.97121e-10
0.2611 	4.27042e-10
0.2618 	3.23637e-10
0.2625 	2.25512e-10
0.2632 	1.27387e-10
0.2639 	4.85769e-11
0.2646 	4.05893e-11
0.2653 	3.25238e-11
0.266 	2.43547e-11
0.2667 	1.87399e-11
0.2674 	1.39249e-11
0.2681 	9.10987e-12
0.2688 	4.58511e-12
0.2695 	3.83428e-12
0.2702 	3.08022e-12
0.2709 	2.31813e-12
0.2716 	1.74072e-12
0.2723 	1.30607e-12
0.273 	8.69345e-13
0.2737 	4.32623e-13
0.2744 	3.37251e-13
0.2751 	2.67969e-13
0.2758 	1.9766e-13
0.2765 	1.40046e-13
0.2772 	1.023e-13
0.2779 	6.38646e-14
0.2786 	2.54297e-14
0.2793 	1.47719e-14
0.28 	1.16899e-14
0.2807 	8.53604e-15
0.2814 	5.73595e-15
0.2821 	4.11907e-15
0.2828 	2.4466e-15
0.2835 	7.74133e-16
0.2842 	1.56297e-16
0.2849 	1.24384e-16
0.2856 	9.16295e-17
0.2863 	5.99742e-17
0.287 	4.35097e-17
0.2877 	2.62373e-17
0.2884 	8.96491e-18
0.2891 	2.98937e-19
0.2898 	2.3959e-19
0.2905 	1.78608e-19
0.2912 	1.16971e-19
0.2919 	8.42526e-20
0.2926 	5.24198e-20
0.2933 	2.0587e-20
0.294 	1.14918e-22
0.2947 	9.2646e-23
0.2954 	6.98154e-23
0.2961 	4.65658e-23
0.2968 	3.25148e-23
0.2975 	2.08668e-23
0.2982 	9.21871e-24
0.2989 	6.40088e-26
0.2996 	5.19401e-26
0.3003 	3.9657e-26
0.301 	2.70878e-26
0.3017 	1.86173e-26
0.3024 	1.22629e-26
0.3031 	5.90842e-27
0.3038 	7.7035e-30
0.3045 	6.28189e-30
0.3052 	4.84077e-30
0.3059 	3.35087e-30
0.3066 	2.22593e-30
0.3073 	1.50067e-30
0.308 	7.76507e-31
0.3087 	5.23458e-32
0.3094 	5.11271e-34
0.3101 	3.98137e-34
0.3108 	2.79262e-34
0.3115 	1.80413e-34
0.3122 	1.23465e-34
0.3129 	6.77264e-35
0.3136 	1.19876e-35
0.3143 	3.70406e-38
0.315 	2.91769e-38
0.3157 	2.07379e-38
0.3164 	1.31233e-38
0.3171 	9.05038e-39
0.3178 	5.21208e-39
0.3185 	1.37379e-39
0.3192 	2.60186e-42
0.3199 	2.06748e-42
0.3206 	1.49278e-42
0.3213 	9.29658e-43
0.322 	6.41943e-43
0.3227 	3.85246e-43
0.3234 	1.28548e-43
0.3241 	1.7957e-46
0.3248 	1.43899e-46
0.3255 	1.05546e-46
0.3262 	6.612e-47
0.3269 	4.46049e-47
0.3276 	2.77323e-47
0.3283 	1.08597e-47
0.329 	1.20838e-50
0.3297 	9.76303e-51
0.3304 	7.27636e-51
0.3311 	4.66529e-51
0.3318 	3.01551e-51
0.3325 	1.93331e-51
0.3332 	8.51118e-52
0.3339 	7.83369e-55
0.3346 	6.37947e-55
0.3353 	4.8336e-55
0.336 	3.16554e-55
0.3367 	1.96207e-55
0.3374 	1.29226e-55
0.3381 	6.22456e-56
0.3388 	4.84159e-59
0.3395 	3.97271e-59
0.3402 	3.06156e-59
0.3409 	2.04477e-59
0.3416 	1.22025e-59
0.3423 	8.20824e-60
0.343 	4.247e-60
0.3437 	2.85766e-61
0.3444 	2.3402e-63
0.3451 	1.83508e-63
0.3458 	1.24819e-63
0.3465 	7.3775e-64
0.3472 	4.92248e-64
0.3479 	2.70011e-64
0.3486 	4.7774e-65
0.3493 	1.2985e-67
0.35 	1.03639e-67
0.3507 	7.16991e-68
0.3514 	4.21717e-68
0.3521 	2.77677e-68
0.3528 	1.59907e-68
0.3535 	4.21376e-69
0.3542 	6.77824e-72
0.3549 	5.46195e-72
0.3556 	3.87087e-72
0.3563 	2.27389e-72
0.357 	1.47199e-72
0.3577 	8.83341e-73
0.3584 	2.94692e-73
0.3591 	3.3322e-76
0.3598 	2.70918e-76
0.3605 	1.96629e-76
0.3612 	1.17544e-76
0.3619 	7.34199e-77
0.3626 	4.56457e-77
0.3633 	1.78715e-77
0.364 	1.54662e-80
0.3647 	1.26752e-80
0.3654 	9.4178e-81
0.3661 	5.8107e-81
0.3668 	3.45526e-81
0.3675 	2.21517e-81
0.3682 	9.75072e-82
0.3689 	-7.24428e-86
0.3696 	-3.69739e-84
0.3703 	-4.33295e-84
0.371 	-9.82663e-85
0.3717 	1.53055e-85
0.3724 	1.00485e-85
0.3731 	4.79145e-86
0.3738 	-1.19681e-85
0.3745 	-1.78273e-84
0.3752 	-2.49547e-84
0.3759 	-8.32394e-85
0.3766 	-3.70006e-88
0.3773 	-3.62337e-88
0.378 	-3.54667e-88
0.3787 	-3.46997e-88
0.3794 	-4.95697e-85
0.3801 	-8.76732e-85
0.3808 	-3.43239e-85
0.3815 	-1.51201e-88
0.3822 	-9.71294e-89
0.3829 	-9.09357e-89
0.3836 	-8.4742e-89
0.3843 	-1.12708e-85
0.385 	-2.56049e-85
0.3857 	-1.12699e-85
0.3864 	-4.64722e-89
0.3871 	-2.07658e-89
0.3878 	-1.92147e-89
0.3885 	-1.76636e-89
0.3892 	-2.14128e-86
0.3899 	-5.46952e-86
0.3906 	-3.09204e-86
0.3913 	-1.19558e-89
0.392 	-3.89531e-90
0.3927 	-3.57552e-90
0.3934 	-3.25572e-90
0.3941 	-3.42533e-87
0.3948 	-1.02699e-86
0.3955 	-7.33626e-87
0.3962 	-4.91351e-88
0.3969 	-6.57076e-91
0.3976 	-5.99774e-91
0.3983 	-5.42472e-91
0.399 	-4.55788e-88
0.3997 	-1.7306e-87
0.4004 	-1.54845e-87
0.4011 	-2.73584e-88
0.4018 	-1.0157e-91
0.4025 	-9.24371e-92
0.4032 	-8.33044e-92
0.4039 	-4.71858e-89
0.4046 	-2.67036e-88
0.4053 	-2.9844e-88
0.406 	-7.85815e-89
0.4067 	-1.44549e-92
0.4074 	-1.3142e-92
0.4081 	-1.18291e-92
0.4088 	-2.5101e-90
0.4095 	-3.75055e-89
0.4102 	-5.25032e-89
0.4109 	-1.75068e-89
0.4116 	-1.9223e-93
0.4123 	-1.74824e-93
0.413 	-1.57418e-93
0.4137 	-1.40011e-93
0.4144 	-4.8312e-90
0.4151 	-8.54644e-90
0.4158 	-3.34495e-90
0.4165 	-4.60973e-94
0.4172 	-2.18394e-94
0.4179 	-1.96692e-94
0.4186 	-1.74989e-94
0.4193 	-5.67297e-91
0.42 	-1.2891e-90
0.4207 	-5.67282e-91
0.4214 	-8.82852e-95
0.4221 	-2.58204e-95
0.4228 	-2.32613e-95
0.4235 	-2.07023e-95
0.4242 	-6.10759e-92
0.4249 	-1.56053e-91
0.4256 	-8.82108e-92
0.4263 	-1.41913e-95
0.427 	-2.89549e-96
0.4277 	-2.6141e-96
0.4284 	-2.33271e-96
0.4291 	-5.9644e-93
0.4298 	-1.78889e-92
0.4305 	-1.27783e-92
0.4312 	-8.53624e-94
0.4319 	-3.12206e-97
0.4326 	-2.83242e-97
0.4333 	-2.54279e-97
0.434 	-5.1631e-94
0.4347 	-1.96134e-93
0.4354 	-1.7549e-93
0.4361 	-3.09855e-94
0.4368 	-3.26299e-98
0.4375 	-2.97421e-98
0.4382 	-2.68544e-98
0.4389 	-3.61209e-95
0.4396 	-2.04574e-94
0.4403 	-2.28638e-94
0.441 	-6.01838e-95
0.4417 	-3.32082e-99
0.4424 	-3.03748e-99
0.4431 	-2.75415e-99
0.4438 	-1.35667e-96
0.4445 	-2.03163e-95
0.4452 	-2.84418e-95
0.4459 	-9.48206e-96
0.4466 	-3.28942e-100
0.4473 	-3.01769e-100
0.448 	-2.74596e-100
0.4487 	-2.47423e-100
0.4494 	-1.9173e-96
0.4501 	-3.39196e-96
0.4508 	-1.32742e-96
0.4515 	-7.33073e-101
0.4522 	-2.91481e-101
0.4529 	-2.66005e-101
0.4536 	-2.40528e-101
0.4543 	-1.70639e-97
0.455 	-3.87788e-97
0.4557 	-1.70638e-97
0.4564 	-1.23247e-101
0.4571 	-2.74465e-102
0.4578 	-2.51083e-102
0.4585 	-2.27701e-102
0.4592 	-1.42379e-98
0.4599 	-3.63825e-98
0.4606 	-2.05649e-98
0.4613 	-1.66211e-102
0.462 	-2.5361e-103
0.4627 	-2.3274e-103
0.4634 	-2.11869e-103
0.4641 	-1.10377e-99
0.4648 	-3.31091e-99
0.4655 	-2.36499e-99
0.4662 	-1.57838e-100
0.4669 	-2.33688e-104
0.4676 	-2.15452e-104
0.4683 	-1.97216e-104
0.469 	-7.80498e-101
0.4697 	-2.9654e-100
0.4704 	-2.65327e-100
0.4711 	-4.68364e-101
0.4718 	-2.18184e-105
0.4725 	-2.02335e-105
0.4732 	-1.86486e-105
0.4739 	-4.67106e-102
0.4746 	-2.64616e-101
0.4753 	-2.95745e-101
0.476 	-7.78396e-102
0.4767 	-2.07926e-106
0.4774 	-1.93867e-106
0.4781 	-1.79808e-106
0.4788 	-1.56802e-103
0.4795 	-2.34981e-102
0.4802 	-3.28967e-102
0.4809 	-1.09666e-102
0.4816 	-2.0113e-107
0.4823 	-1.88184e-107
0.483 	-1.75238e-107
0.4837 	-1.62292e-107
0.4844 	-2.04698e-103
0.4851 	-3.62146e-103
0.4858 	-1.41719e-103
0.4865 	-4.56878e-108
0.4872 	-1.83179e-108
0.4879 	-1.70906e-108
0.4886 	-1.58632e-108
0.4893 	-1.71942e-104
0.49 	-3.90759e-104
0.4907 	-1.71942e-104
0.4914 	-8.24867e-109
0.4921 	-1.7829e-109
0.4928 	-1.66552e-109
0.4935 	-1.54814e-109
0.4942 	-1.37621e-105
0.4949 	-3.51675e-105
0.4956 	-1.98779e-105
0.4963 	-1.17066e-109
0.497 	-1.73936e-110
0.4977 	-1.62698e-110
0.4984 	-1.51461e-110
0.4991 	-1.03528e-106
0.4998 	-3.10557e-106
0.5005 	-2.2183e-106
0.5012 	-1.48014e-107
0.5019 	-1.70329e-111
0.5026 	-1.59526e-111
0.5033 	-1.48722e-111
0.504 	-7.07746e-108
0.5047 	-2.68906e-107
0.5054 	-2.40601e-107
0.5061 	-4.24699e-108
0.5068 	-1.67289e-112
0.5075 	-1.56816e-112
0.5082 	-1.46343e-112
0.5089 	-4.01163e-109
0.5096 	-2.27264e-108
0.5103 	-2.53999e-108
0.511 	-6.68513e-109
0.5117 	-1.6481e-113
0.5124 	-1.54594e-113
0.5131 	-1.44379e-113
0.5138 	-1.24552e-110
0.5145 	-1.86646e-109
0.5152 	-2.61299e-109
0.5159 	-8.7108e-110
0.5166 	-1.63706e-114
0.5173 	-1.53704e-114
0.518 	-1.43703e-114
0.5187 	-1.33702e-114
0.5194 	-1.49205e-110
0.5201 	-2.63969e-110
0.5208 	-1.033e-110
0.5215 	-3.57778e-115
0.5222 	-1.55388e-115
0.5229 	-1.45501e-115
0.5236 	-1.35613e-115
0.5243 	-1.16821e-111
0.525 	-2.65485e-111
0.5257 	-1.1682e-111
0.5264 	-6.96527e-116
0.5271 	-1.59782e-116
0.5278 	-1.49775e-116
0.5285 	-1.39768e-116
0.5292 	-8.96364e-113
0.5299 	-2.2905e-112
0.5306 	-1.29468e-112
0.5313 	-1.05346e-116
0.532 	-1.64826e-117
0.5327 	-1.54401e-117
0.5334 	-1.43977e-117
0.5341 	-6.58508e-114
0.5348 	-1.97525e-113
0.5355 	-1.41093e-113
0.5362 	-9.41802e-115
0.5369 	-1.67114e-118
0.5376 	-1.56108e-118
0.5383 	-1.45102e-118
0.539 	-4.36749e-115
0.5397 	-1.65927e-114
0.5404 	-1.48462e-114
0.5411 	-2.62095e-115
0.5418 	-1.64668e-119
0.5425 	-1.53263e-119
0.5432 	-1.41859e-119
0.5439 	-2.36775e-116
0.5446 	-1.34112e-115
0.5453 	-1.49888e-115
0.546 	-3.94529e-116
0.5467 	-1.57199e-120
0.5474 	-1.45749e-120
0.5481 	-1.343e-120
0.5488 	-6.91747e-118
0.5495 	-1.03592e-116
0.5502 	-1.45023e-116
0.5509 	-4.83485e-117
0.5516 	-1.45548e-121
0.5523 	-1.34458e-121
0.553 	-1.23368e-121
0.5537 	-1.12278e-121
0.5544 	-7.63121e-118
0.5551 	-1.35005e-117
0.5558 	-5.28342e-118
0.5565 	-2.71049e-122
0.5572 	-1.20598e-122
0.5579 	-1.10213e-122
0.5586 	-9.9828e-123
0.5593 	-5.34752e-119
0.56 	-1.21522e-118
0.5607 	-5.34747e-119
0.5614 	-4.80786e-123
0.5621 	-1.05304e-123
0.5628 	-9.58728e-124
0.5635 	-8.64412e-124
0.5642 	-3.53916e-120
0.5649 	-9.04324e-120
0.5656 	-5.11171e-120
0.5663 	-6.15883e-124
0.567 	-8.95883e-125
0.5677 	-8.12659e-125
0.5684 	-7.29436e-125
0.5691 	-2.17291e-121
0.5698 	-6.51736e-121
0.5705 	-4.65542e-121
0.5712 	-3.1092e-122
0.5719 	-7.43003e-126
0.5726 	-6.7166e-126
0.5733 	-6.00318e-126
0.574 	-1.19782e-122
0.5747 	-4.55019e-122
0.5754 	-4.07125e-122
0.5761 	-7.18851e-123
0.5768 	-5.99223e-127
0.5775 	-5.39692e-127
0.5782 	-4.80162e-127
0.5789 	-5.40301e-124
0.5796 	-3.0597e-123
0.5803 	-3.4196e-123
0.581 	-9.00169e-124
0.5817 	-4.70667e-128
0.5824 	-4.22568e-128
0.5831 	-3.74469e-128
0.5838 	-1.31993e-125
0.5845 	-1.97531e-124
0.5852 	-2.7653e-124
0.5859 	-9.21955e-125
0.5866 	-3.64301e-129
0.5873 	-3.26594e-129
0.588 	-2.88887e-129
0.5887 	-2.51179e-129
0.5894 	-1.23492e-125
0.5901 	-2.18467e-125
0.5908 	-8.54999e-126
0.5915 	-5.47635e-130
0.5922 	-2.51589e-130
0.5929 	-2.22387e-130
0.5936 	-1.93185e-130
0.5943 	-7.54446e-127
0.595 	-1.71441e-126
0.5957 	-7.5443e-127
0.5964 	-8.71737e-131
0.5971 	-1.91347e-131
0.5978 	-1.68694e-131
0.5985 	-1.46041e-131
0.5992 	-4.39892e-128
0.5999 	-1.12395e-127
0.6006 	-6.35328e-128
0.6013 	-9.79448e-132
0.602 	-1.42341e-132
0.6027 	-1.25076e-132
0.6034 	-1.0781e-132
0.6041 	-2.37696e-129
0.6048 	-7.1289e-129
0.6055 	-5.09229e-129
0.6062 	-3.40255e-130
0.6069 	-1.03422e-133
0.6076 	-9.06223e-134
0.6083 	-7.7823e-134
0.609 	-1.1529e-130
0.6097 	-4.37907e-130
0.6104 	-3.91815e-130
0.6111 	-6.91912e-131
0.6118 	-7.37158e-135
0.6125 	-6.4467e-135
0.6132 	-5.52182e-135
0.6139 	-4.61245e-132
0.6146 	-2.61149e-131
0.6153 	-2.91865e-131
0.616 	-7.68356e-132
0.6167 	-5.1583e-136
0.6174 	-4.50251e-136
0.6181 	-3.84672e-136
0.6188 	-1.00628e-133
0.6195 	-1.5049e-132
0.6202 	-2.10672e-132
0.6209 	-7.02416e-133
0.6216 	-3.54356e-137
0.6223 	-3.08831e-137
0.623 	-2.63305e-137
0.6237 	-2.1778e-137
0.6244 	-8.34939e-134
0.6251 	-1.47703e-133
0.6258 	-5.78075e-134
0.6265 	-4.3543e-138
0.6272 	-2.08381e-138
0.6279 	-1.77399e-138
0.6286 	-1.46418e-138
0.6293 	-4.44115e-135
0.63 	-1.00917e-134
0.6307 	-4.441e-135
0.6314 	-6.16613e-139
0.6321 	-1.37557e-139
0.6328 	-1.16827e-139
0.6335 	-9.60958e-140
0.6342 	-2.22586e-136
0.6349 	-5.68693e-136
0.6356 	-3.21465e-136
0.6363 	-6.00443e-140
0.637 	-8.85567e-141
0.6377 	-7.50649e-141
0.6384 	-6.15731e-141
0.6391 	-1.03009e-137
0.6398 	-3.08918e-137
0.6405 	-2.20667e-137
0.6412 	-1.47517e-138
0.6419 	-5.60095e-142
0.6426 	-4.74779e-142
0.6433 	-3.89464e-142
0.644 	-4.30195e-139
0.6447 	-1.63381e-138
0.6454 	-1.46184e-138
0.6461 	-2.58189e-139
0.6468 	-3.51677e-143
0.6475 	-2.98498e-143
0.6482 	-2.45319e-143
0.6489 	-1.49695e-140
0.6496 	-8.47325e-140
0.6503 	-9.46975e-140
0.651 	-2.49321e-140
0.6517 	-2.18827e-144
0.6524 	-1.85779e-144
0.6531 	-1.52731e-144
0.6538 	-2.83937e-142
0.6545 	-4.24198e-141
0.6552 	-5.93824e-141
0.6559 	-1.98005e-141
0.6566 	-1.34984e-145
0.6573 	-1.14778e-145
0.658 	-9.45724e-146
0.6587 	-7.43664e-146
0.6594 	-2.0642e-142
0.6601 	-3.65146e-142
0.6608 	-1.42918e-142
0.6615 	-1.40344e-146
0.6622 	-7.03997e-147
0.6629 	-5.809e-147
0.6636 	-4.57803e-147
0.6643 	-9.65836e-144
0.665 	-2.19453e-143
0.6657 	-9.6578e-144
0.6664 	-1.82527e-147
0.6671 	-4.28692e-148
0.6678 	-3.54519e-148
0.6685 	-2.80347e-148
0.6692 	-4.29665e-145
0.6699 	-1.09764e-144
0.6706 	-6.20486e-145
0.6713 	-1.65275e-148
0.672 	-2.59074e-149
0.6727 	-2.14674e-149
0.6734 	-1.70273e-149
0.6741 	-1.78257e-146
0.6748 	-5.34476e-146
0.6755 	-3.81796e-146
0.6762 	-2.55584e-147
0.6769 	-1.56096e-150
0.6776 	-1.298e-150
0.6783 	-1.03503e-150
0.679 	-6.72952e-148
0.6797 	-2.55479e-147
0.6804 	-2.28589e-147
0.6811 	-4.03934e-148
0.6818 	-9.43816e-152
0.6825 	-7.87786e-152
0.6832 	-6.31756e-152
0.6839 	-2.11387e-149
0.6846 	-1.19548e-148
0.6853 	-1.33604e-148
0.686 	-3.51873e-149
0.6867 	-5.70469e-153
0.6874 	-4.77388e-153
0.6881 	-3.84307e-153
0.6888 	-3.64236e-151
0.6895 	-5.42184e-150
0.6902 	-7.58926e-150
0.6909 	-2.53124e-150
0.6916 	-3.34805e-154
0.6923 	-2.79446e-154
0.693 	-2.24087e-154
0.6937 	-1.68728e-154
0.6944 	-2.2858e-151
0.6951 	-4.0428e-151
0.6958 	-1.58271e-151
0.6965 	-2.94363e-155
0.6972 	-1.44418e-155
0.6979 	-1.13232e-155
0.6986 	-8.2046e-156
0.6993 	-6.81537e-156
0.7 	-5.8978e-156
