0 	1
0.0007 	1
0.0014 	1
0.0021 	1
0.0028 	1
0.0035 	1
0.0042 	1
0.0049 	1
0.0056 	1
0.0063 	1
0.007 	1
0.0077 	1
0.0084 	1
0.0091 	1
0.0098 	1
0.0105 	1
0.0112 	1
0.0119 	1
0.0126 	1
0.0133 	1
0.014 	1
0.0147 	1
0.0154 	1
0.0161 	1
0.0168 	1
0.0175 	1
0.0182 	1
0.0189 	1
0.0196 	1
0.0203 	1
0.021 	1
0.0217 	1
0.0224 	1
0.0231 	1
0.0238 	1
0.0245 	1
0.0252 	1
0.0259 	1
0.0266 	1
0.0273 	1
0.028 	1
0.0287 	1
0.0294 	1
0.0301 	1
0.0308 	1
0.0315 	1
0.0322 	1
0.0329 	1
0.0336 	1
0.0343 	1
0.035 	1
0.0357 	1
0.0364 	1
0.0371 	1
0.0378 	1
0.0385 	1
0.0392 	1
0.0399 	1
0.0406 	1
0.0413 	1
0.042 	1
0.0427 	1
0.0434 	1
0.0441 	1
0.0448 	1
0.0455 	1
0.0462 	1
0.0469 	1
0.0476 	1
0.0483 	1
0.049 	1
0.0497 	1
0.0504 	1
0.0511 	1
0.0518 	1
0.0525 	1
0.0532 	1
0.0539 	1
0.0546 	1
0.0553 	1
0.056 	1
0.0567 	1
0.0574 	1
0.0581 	1
0.0588 	1
0.0595 	1
0.0602 	1
0.0609 	1
0.0616 	1
0.0623 	1
0.063 	1
0.0637 	1
0.0644 	1
0.0651 	1
0.0658 	1
0.0665 	1
0.0672 	1
0.0679 	1
0.0686 	1
0.0693 	1
0.07 	1
0.0707 	1
0.0714 	1
0.0721 	1
0.0728 	1
0.0735 	1
0.0742 	1
0.0749 	1
0.0756 	1
0.0763 	1
0.077 	1
0.0777 	1
0.0784 	1
0.0791 	1
0.0798 	1
0.0805 	1
0.0812 	1
0.0819 	1
0.0826 	1
0.0833 	1
0.084 	1
0.0847 	1
0.0854 	1
0.0861 	1
0.0868 	1
0.0875 	1
0.0882 	1
0.0889 	1
0.0896 	1
0.0903 	1
0.091 	1
0.0917 	1
0.0924 	1
0.0931 	1
0.0938 	1
0.0945 	1
0.0952 	1
0.0959 	1
0.0966 	1
0.0973 	1
0.098 	1
0.0987 	1
0.0994 	1
0.1001 	1
0.1008 	1
0.1015 	1
0.1022 	1
0.1029 	1
0.1036 	1
0.1043 	1
0.105 	1
0.1057 	1
0.1064 	1
0.1071 	1
0.1078 	1
0.1085 	1
0.1092 	1
0.1099 	1
0.1106 	1
0.1113 	1
0.112 	1
0.1127 	1
0.1134 	1
0.1141 	1
0.1148 	1
0.1155 	1
0.1162 	1
0.1169 	1
0.1176 	1
0.1183 	1
0.119 	1
0.1197 	1
0.1204 	1
0.1211 	1
0.1218 	1
0.1225 	1
0.1232 	1
0.1239 	1
0.1246 	1
0.1253 	1
0.126 	1
0.1267 	1
0.1274 	1
0.1281 	1
0.1288 	1
0.1295 	1
0.1302 	1
0.1309 	1
0.1316 	1
0.1323 	1
0.133 	1
0.1337 	1
0.1344 	1
0.1351 	1
0.1358 	1
0.1365 	1
0.1372 	1
0.1379 	1
0.1386 	1
0.1393 	1
0.14 	1
0.1407 	1
0.1414 	1
0.1421 	1
0.1428 	1
0.1435 	1
0.1442 	1
0.1449 	1
0.1456 	1
0.1463 	1
0.147 	1
0.1477 	1
0.1484 	1
0.1491 	1
0.1498 	1
0.1505 	1
0.1512 	1
0.1519 	1
0.1526 	1
0.1533 	1
0.154 	1
0.1547 	1
0.1554 	1
0.1561 	1
0.1568 	1
0.1575 	1
0.1582 	1
0.1589 	1
0.1596 	1
0.1603 	1
0.161 	1
0.1617 	1
0.1624 	1
0.1631 	1
0.1638 	1
0.1645 	1
0.1652 	1
0.1659 	1
0.1666 	1
0.1673 	1
0.168 	1
0.1687 	1
0.1694 	1
0.1701 	1
0.1708 	1
0.1715 	1
0.1722 	1
0.1729 	1
0.1736 	1
0.1743 	1
0.175 	1
0.1757 	1
0.1764 	1
0.1771 	1
0.1778 	1
0.1785 	1
0.1792 	1
0.1799 	1
0.1806 	1
0.1813 	1
0.182 	1
0.1827 	1
0.1834 	1
0.1841 	1
0.1848 	1
0.1855 	1
0.1862 	1
0.1869 	1
0.1876 	1
0.1883 	1
0.189 	1
0.1897 	1
0.1904 	1
0.1911 	1
0.1918 	1
0.1925 	1
0.1932 	1
0.1939 	1
0.1946 	1
0.1953 	1
0.196 	1
0.1967 	1
0.1974 	1
0.1981 	1
0.1988 	1
0.1995 	1
0.2002 	1
0.2009 	1
0.2016 	1
0.2023 	1
0.203 	1
0.2037 	1
0.2044 	1
0.2051 	1
0.2058 	1
0.2065 	1
0.2072 	1
0.2079 	1
0.2086 	1
0.2093 	1
0.21 	1
0.2107 	1
0.2114 	1
0.2121 	1
0.2128 	1
0.2135 	1
0.2142 	1
0.2149 	1
0.2156 	1
0.2163 	1
0.217 	1
0.2177 	1
0.2184 	1
0.2191 	1
0.2198 	1
0.2205 	1
0.2212 	1
0.2219 	1
0.2226 	1
0.2233 	1
0.224 	1
0.2247 	1
0.2254 	1
0.2261 	1
0.2268 	1
0.2275 	1
0.2282 	1
0.2289 	1
0.2296 	1
0.2303 	1
0.231 	1
0.2317 	1
0.2324 	1
0.2331 	1
0.2338 	1
0.2345 	1
0.2352 	1
0.2359 	1
0.2366 	1
0.2373 	1
0.238 	1
0.2387 	1
0.2394 	1
0.2401 	1
0.2408 	1
0.2415 	1
0.2422 	1
0.2429 	1
0.2436 	1
0.2443 	1
0.245 	1
0.2457 	1
0.2464 	1
0.2471 	1
0.2478 	1
0.2485 	1
0.2492 	1
0.2499 	1
0.2506 	1
0.2513 	1
0.252 	0.999998
0.2527 	0.999996
0.2534 	0.999995
0.2541 	0.999992
0.2548 	0.999989
0.2555 	0.999986
0.2562 	0.999982
0.2569 	0.999701
0.2576 	0.999385
0.2583 	0.99907
0.259 	0.998649
0.2597 	0.998036
0.2604 	0.997407
0.2611 	0.996767
0.2618 	0.989882
0.2625 	0.981045
0.2632 	0.972206
0.2639 	0.961666
0.2646 	0.944884
0.2653 	0.927889
0.266 	0.91061
0.2667 	0.874046
0.2674 	0.826341
0.2681 	0.778561
0.2688 	0.72864
0.2695 	0.650869
0.2702 	0.572688
0.2709 	0.493481
0.2716 	0.423709
0.2723 	0.363517
0.273 	0.303385
0.2737 	0.243253
0.2744 	0.200639
0.2751 	0.159224
0.2758 	0.116911
0.2765 	0.081717
0.2772 	0.0596308
0.2779 	0.0377673
0.2786 	0.0159039
0.2793 	0.00969752
0.28 	0.00776158
0.2807 	0.00574072
0.2814 	0.00392333
0.2821 	0.00287138
0.2828 	0.00184557
0.2835 	0.00081975
0.2842 	0.000404054
0.2849 	0.000327331
0.2856 	0.00024669
0.2863 	0.000168101
0.287 	0.000125163
0.2877 	8.34624e-05
0.2884 	4.1762e-05
0.2891 	1.89894e-05
0.2898 	1.51454e-05
0.2905 	1.1349e-05
0.2912 	7.57158e-06
0.2919 	5.56207e-06
0.2926 	3.5869e-06
0.2933 	1.61173e-06
0.294 	3.22832e-07
0.2947 	2.69287e-07
0.2954 	2.11129e-07
0.2961 	1.49512e-07
0.2968 	1.22445e-07
0.2975 	7.85707e-08
0.2982 	3.4655e-08
0.2989 	1.56914e-10
0.2996 	1.92978e-10
0.3003 	1.93803e-10
0.301 	1.47642e-10
0.3017 	1.30692e-10
0.3024 	9.2462e-11
0.3031 	4.79172e-11
0.3038 	6.61684e-12
0.3045 	7.50313e-12
0.3052 	8.28605e-12
0.3059 	8.81053e-12
0.3066 	9.38808e-12
0.3073 	9.78663e-12
0.308 	1.0092e-11
0.3087 	1.03973e-11
0.3094 	1.08018e-11
0.3101 	1.11355e-11
0.3108 	1.09979e-11
0.3115 	1.08728e-11
0.3122 	1.07805e-11
0.3129 	1.0696e-11
0.3136 	1.06115e-11
0.3143 	1.05546e-11
0.315 	1.05053e-11
0.3157 	9.93678e-12
0.3164 	9.34822e-12
0.3171 	8.78484e-12
0.3178 	8.35308e-12
0.3185 	7.92133e-12
0.3192 	7.42929e-12
0.3199 	6.90375e-12
0.3206 	6.07271e-12
0.3213 	5.19979e-12
0.322 	4.52743e-12
0.3227 	4.06251e-12
0.3234 	3.59759e-12
0.3241 	3.19558e-12
0.3248 	2.8565e-12
0.3255 	2.38596e-12
0.3262 	1.86283e-12
0.3269 	1.48636e-12
0.3276 	1.24904e-12
0.3283 	1.01171e-12
0.329 	8.22276e-13
0.3297 	7.19045e-13
0.3304 	5.87131e-13
0.3311 	4.33703e-13
0.3318 	3.21258e-13
0.3325 	2.52381e-13
0.3332 	1.83505e-13
0.3339 	1.25764e-13
0.3346 	1.08855e-13
0.3353 	8.96754e-14
0.336 	6.74693e-14
0.3367 	5.16921e-14
0.3374 	4.00047e-14
0.3381 	2.84027e-14
0.3388 	1.75134e-14
0.3395 	1.58899e-14
0.3402 	1.40542e-14
0.3409 	1.16881e-14
0.3416 	9.97406e-15
0.3423 	8.40415e-15
0.343 	6.63271e-15
0.3437 	4.86127e-15
0.3444 	4.29968e-15
0.3451 	3.82528e-15
0.3458 	3.31549e-15
0.3465 	2.89127e-15
0.3472 	2.52025e-15
0.3479 	2.07422e-15
0.3486 	1.62819e-15
0.3493 	1.3705e-15
0.35 	1.16417e-15
0.3507 	9.77259e-16
0.3514 	8.06788e-16
0.3521 	6.85434e-16
0.3528 	5.49348e-16
0.3535 	4.13262e-16
0.3542 	3.2661e-16
0.3549 	2.67424e-16
0.3556 	2.10805e-16
0.3563 	1.56268e-16
0.357 	1.23709e-16
0.3577 	9.2343e-17
0.3584 	6.09772e-17
0.3591 	4.12335e-17
0.3598 	3.31125e-17
0.3605 	2.50568e-17
0.3612 	1.70274e-17
0.3619 	1.23467e-17
0.3626 	8.46856e-18
0.3633 	4.59038e-18
0.364 	1.97382e-18
0.3647 	1.62827e-18
0.3654 	1.24726e-18
0.3661 	8.39665e-19
0.3668 	5.82164e-19
0.3675 	3.85738e-19
0.3682 	1.89312e-19
0.3689 	3.41596e-20
0.3696 	3.03509e-20
0.3703 	2.50902e-20
0.371 	1.78934e-20
0.3717 	1.36378e-20
0.3724 	9.30594e-21
0.3731 	4.69837e-21
0.3738 	4.19713e-22
0.3745 	4.17815e-22
0.3752 	3.88716e-22
0.3759 	2.91612e-22
0.3766 	2.35298e-22
0.3773 	1.72234e-22
0.378 	9.05618e-23
0.3787 	8.88989e-24
0.3794 	3.19021e-24
0.3801 	3.20661e-24
0.3808 	2.449e-24
0.3815 	1.93299e-24
0.3822 	1.50823e-24
0.3829 	8.30722e-25
0.3836 	1.53215e-25
0.3843 	8.45746e-27
0.385 	9.00586e-27
0.3857 	7.04043e-27
0.3864 	5.45191e-27
0.3871 	4.56643e-27
0.3878 	2.79468e-27
0.3885 	1.02293e-27
0.3892 	3.84591e-28
0.3899 	3.75964e-28
0.3906 	3.15202e-28
0.3913 	2.49621e-28
0.392 	2.22475e-28
0.3927 	1.66443e-28
0.3934 	1.10412e-28
0.3941 	8.15951e-29
0.3948 	7.99956e-29
0.3955 	6.81305e-29
0.3962 	5.21593e-29
0.3969 	4.66278e-29
0.3976 	3.37921e-29
0.3983 	2.09563e-29
0.399 	1.27093e-29
0.3997 	1.27222e-29
0.4004 	1.11332e-29
0.4011 	8.34257e-30
0.4018 	7.39002e-30
0.4025 	5.07398e-30
0.4032 	2.75793e-30
0.4039 	9.48353e-31
0.4046 	9.95963e-31
0.4053 	9.24071e-31
0.406 	6.92843e-31
0.4067 	5.93603e-31
0.4074 	4.1479e-31
0.4081 	2.11891e-31
0.4088 	2.36989e-32
0.4095 	2.67292e-32
0.4102 	2.70385e-32
0.4109 	2.05457e-32
0.4116 	1.70695e-32
0.4123 	1.26014e-32
0.413 	6.58567e-33
0.4137 	5.6991e-34
0.4144 	1.68243e-34
0.4151 	1.88028e-34
0.4158 	1.44934e-34
0.4165 	1.16644e-34
0.4172 	9.19454e-35
0.4179 	5.04854e-35
0.4186 	9.02542e-36
0.4193 	1.72201e-37
0.42 	2.12374e-37
0.4207 	1.65654e-37
0.4214 	1.28769e-37
0.4221 	1.08259e-37
0.4228 	6.23384e-38
0.4235 	1.64182e-38
0.4242 	2.12145e-41
0.4249 	2.67982e-41
0.4256 	2.24102e-41
0.4263 	1.67882e-41
0.427 	1.49844e-41
0.4277 	8.99116e-42
0.4284 	2.99788e-42
0.4291 	1.34536e-45
0.4298 	1.7104e-45
0.4305 	1.53047e-45
0.4312 	1.13254e-45
0.4319 	1.04119e-45
0.4326 	6.4726e-46
0.4333 	2.53327e-46
0.434 	8.88116e-50
0.4347 	1.13842e-49
0.4354 	1.08962e-49
0.4361 	8.16472e-50
0.4368 	7.53245e-50
0.4375 	4.82871e-50
0.4382 	2.12497e-50
0.4389 	6.04812e-54
0.4396 	7.83121e-54
0.4403 	8.01864e-54
0.441 	6.07853e-54
0.4417 	5.37298e-54
0.4424 	3.70538e-54
0.4431 	1.7843e-54
0.4438 	4.18542e-58
0.4445 	5.48244e-58
0.4452 	6.0076e-58
0.4459 	4.6031e-58
0.4466 	3.89412e-58
0.4473 	2.88267e-58
0.448 	1.49119e-58
0.4487 	9.97058e-60
0.4494 	3.85866e-62
0.4501 	4.5268e-62
0.4508 	3.50304e-62
0.4515 	2.84162e-62
0.4522 	2.24737e-62
0.4529 	1.23253e-62
0.4536 	2.17694e-63
0.4543 	2.71393e-66
0.455 	3.41011e-66
0.4557 	2.66325e-66
0.4564 	2.07508e-66
0.4571 	1.74613e-66
0.4578 	1.00542e-66
0.4585 	2.64707e-67
0.4592 	1.90396e-70
0.4599 	2.41318e-70
0.4606 	2.01938e-70
0.4613 	1.51364e-70
0.462 	1.35025e-70
0.4627 	8.10201e-71
0.4634 	2.70148e-71
0.4641 	1.33257e-74
0.4648 	1.70453e-74
0.4655 	1.52767e-74
0.4662 	1.13128e-74
0.4669 	1.03987e-74
0.4676 	6.4644e-75
0.4683 	2.53008e-75
0.469 	8.87614e-79
0.4697 	1.04641e-78
0.4704 	1.01437e-78
0.4711 	8.39213e-79
0.4718 	7.96349e-79
0.4725 	5.08606e-79
0.4732 	2.20864e-79
0.4739 	-7.84169e-80
0.4746 	-4.20007e-79
0.4753 	-4.69953e-79
0.476 	-1.3104e-79
0.4767 	-1.04768e-80
0.4774 	-1.34383e-80
0.4781 	-1.67341e-80
0.4788 	-6.04724e-80
0.4795 	-6.3006e-79
0.4802 	-8.74838e-79
0.4809 	-3.07592e-79
0.4816 	-2.43035e-80
0.4823 	-2.69033e-80
0.483 	-3.02336e-80
0.4837 	-3.35639e-80
0.4844 	-7.51605e-79
0.4851 	-1.30406e-78
0.4858 	-5.33108e-79
0.4865 	-3.76993e-80
0.4872 	-3.96572e-80
0.4879 	-4.26113e-80
0.4886 	-4.55654e-80
0.4893 	-7.79224e-79
0.49 	-1.71218e-78
0.4907 	-7.8091e-79
0.4914 	-4.92943e-80
0.4921 	-5.05399e-80
0.4928 	-5.28398e-80
0.4935 	-5.51396e-80
0.4942 	-7.19485e-79
0.4949 	-1.75165e-78
0.4956 	-1.01535e-78
0.4963 	-5.79679e-80
0.497 	-5.85446e-80
0.4977 	-5.99543e-80
0.4984 	-6.1364e-80
0.4991 	-5.92688e-79
0.4998 	-1.65395e-78
0.5005 	-1.19943e-78
0.5012 	-1.38597e-79
0.5019 	-6.29076e-80
0.5026 	-6.33054e-80
0.5033 	-6.37031e-80
0.504 	-4.29052e-79
0.5047 	-1.45135e-78
0.5054 	-1.30516e-78
0.5061 	-2.82602e-79
0.5068 	-6.33508e-80
0.5075 	-6.27747e-80
0.5082 	-6.21987e-80
0.5089 	-2.60555e-79
0.5096 	-1.18838e-78
0.5103 	-1.32057e-78
0.511 	-3.91901e-79
0.5117 	-6.004e-80
0.5124 	-5.88082e-80
0.5131 	-5.74424e-80
0.5138 	-1.13087e-79
0.5145 	-9.10008e-79
0.5152 	-1.25119e-78
0.5159 	-4.53034e-79
0.5166 	-5.37612e-80
0.5173 	-5.22787e-80
0.518 	-5.03962e-80
0.5187 	-4.85138e-80
0.5194 	-6.521e-79
0.5201 	-1.1163e-78
0.5208 	-4.64704e-79
0.5215 	-4.56733e-80
0.5222 	-4.42587e-80
0.5229 	-4.21517e-80
0.5236 	-4.00446e-80
0.5243 	-4.36727e-79
0.525 	-9.42178e-79
0.5257 	-4.35292e-79
0.5264 	-3.69418e-80
0.5271 	-3.57905e-80
0.5278 	-3.37119e-80
0.5285 	-3.16332e-80
0.5292 	-2.72263e-79
0.5299 	-6.47738e-79
0.5306 	-3.78422e-79
0.5313 	-2.85327e-80
0.532 	-2.77185e-80
0.5327 	-2.5848e-80
0.5334 	-2.39775e-80
0.5341 	-1.56629e-79
0.5348 	-4.23809e-79
0.5355 	-3.08518e-79
0.5362 	-4.02393e-80
0.5369 	-2.06065e-80
0.5376 	-1.90424e-80
0.5383 	-1.74783e-80
0.539 	-8.16555e-80
0.5397 	-2.64173e-79
0.5404 	-2.37604e-79
0.5411 	-5.42207e-80
0.5418 	-1.47344e-80
0.5425 	-1.35055e-80
0.5432 	-1.22766e-80
0.5439 	-3.70099e-80
0.5446 	-1.56944e-79
0.5453 	-1.73802e-79
0.546 	-5.3223e-80
0.5467 	-1.00568e-80
0.5474 	-9.23716e-81
0.5481 	-8.32316e-81
0.5488 	-1.28982e-80
0.5495 	-8.88437e-80
0.5502 	-1.21262e-79
0.5509 	-4.48608e-80
0.5516 	-6.60563e-81
0.5523 	-6.10207e-81
0.553 	-5.45499e-81
0.5537 	-4.80792e-81
0.5544 	-4.78632e-80
0.5551 	-8.09748e-80
0.5558 	-3.42502e-80
0.5565 	-4.18714e-81
0.5572 	-3.89878e-81
0.5579 	-3.46089e-81
0.5586 	-3.023e-81
0.5593 	-2.44763e-80
0.56 	-5.19004e-80
0.5607 	-2.42781e-80
0.5614 	-2.56516e-81
0.5621 	-2.41234e-81
0.5628 	-2.12814e-81
0.5635 	-1.84394e-81
0.5642 	-1.18243e-80
0.5649 	-2.75074e-80
0.5656 	-1.61998e-80
0.5663 	-1.52086e-81
0.567 	-1.44711e-81
0.5677 	-1.26971e-81
0.5684 	-1.09232e-81
0.5691 	-5.34958e-81
0.5698 	-1.40417e-80
0.5705 	-1.02641e-80
0.5712 	-1.49857e-81
0.5719 	-8.42488e-82
0.5726 	-7.35757e-82
0.5733 	-6.29027e-82
0.574 	-2.22969e-81
0.5747 	-6.90384e-81
0.5754 	-6.21195e-81
0.5761 	-1.49553e-81
0.5768 	-4.76474e-82
0.5775 	-4.14454e-82
0.5782 	-3.52435e-82
0.5789 	-8.26801e-82
0.5796 	-3.26806e-81
0.5803 	-3.60672e-81
0.581 	-1.14194e-81
0.5817 	-2.58353e-82
0.5824 	-2.27136e-82
0.5831 	-1.92271e-82
0.5838 	-2.48423e-82
0.5845 	-1.48801e-81
0.5852 	-2.01563e-81
0.5859 	-7.6337e-82
0.5866 	-1.35876e-82
0.5873 	-1.21197e-82
0.588 	-1.02207e-82
0.5887 	-8.32167e-83
0.5894 	-6.50561e-82
0.5901 	-1.08708e-81
0.5908 	-4.68004e-82
0.5915 	-6.95258e-83
0.5922 	-6.30064e-83
0.5929 	-5.29721e-83
0.5936 	-4.29378e-83
0.5943 	-2.72324e-82
0.595 	-5.67012e-82
0.5957 	-2.68967e-82
0.5964 	-3.46392e-83
0.5971 	-3.19334e-83
0.5978 	-2.67836e-83
0.5985 	-2.16337e-83
0.5992 	-1.08628e-82
0.5999 	-2.46815e-82
0.6006 	-1.46692e-82
0.6013 	-1.68162e-83
0.602 	-1.5788e-83
0.6027 	-1.32182e-83
0.6034 	-1.06484e-83
0.6041 	-4.09612e-83
0.6048 	-1.04158e-82
0.6055 	-7.65077e-83
0.6062 	-1.25185e-83
0.6069 	-7.61834e-84
0.6076 	-6.37041e-84
0.6083 	-5.12248e-84
0.609 	-1.43931e-83
0.6097 	-4.2598e-83
0.6104 	-3.83576e-83
0.6111 	-9.78312e-84
0.6118 	-3.58978e-84
0.6125 	-2.9995e-84
0.6132 	-2.40922e-84
0.6139 	-4.57924e-84
0.6146 	-1.68711e-83
0.6153 	-1.85551e-83
0.616 	-6.09536e-84
0.6167 	-1.62379e-84
0.6174 	-1.38037e-84
0.6181 	-1.1082e-84
0.6188 	-1.22926e-84
0.6195 	-6.46303e-84
0.6202 	-8.68483e-84
0.6209 	-3.37667e-84
0.6216 	-7.15217e-85
0.6223 	-6.21113e-85
0.623 	-4.98709e-85
0.6237 	-3.76304e-85
0.6244 	-2.39036e-84
0.6251 	-3.94178e-84
0.6258 	-1.73121e-84
0.6265 	-3.07873e-85
0.6272 	-2.73358e-85
0.6279 	-2.19624e-85
0.6286 	-1.65891e-85
0.6293 	-8.5111e-85
0.63 	-1.73788e-84
0.6307 	-8.37542e-85
0.6314 	-1.29577e-85
0.6321 	-1.17713e-85
0.6328 	-9.46754e-86
0.6335 	-7.16383e-86
0.6342 	-2.90457e-85
0.6349 	-6.43648e-85
0.6356 	-3.86575e-85
0.6363 	-5.33451e-86
0.637 	-4.9611e-86
0.6377 	-3.99599e-86
0.6384 	-3.03089e-86
0.6391 	-9.433e-86
0.6398 	-2.32027e-85
0.6405 	-1.71404e-85
0.6412 	-3.14541e-86
0.6419 	-2.04702e-86
0.6426 	-1.65175e-86
0.6433 	-1.25648e-86
0.644 	-2.87975e-86
0.6447 	-8.13657e-86
0.6454 	-7.33486e-86
0.6461 	-1.98926e-86
0.6468 	-8.27128e-87
0.6475 	-6.68794e-87
0.6482 	-5.1046e-87
0.6489 	-8.07297e-87
0.6496 	-2.77321e-86
0.6503 	-3.03938e-86
0.651 	-1.03925e-86
0.6517 	-3.2078e-87
0.6524 	-2.65313e-87
0.6531 	-2.03255e-87
0.6538 	-1.9708e-87
0.6545 	-9.17513e-87
0.6552 	-1.22258e-86
0.6559 	-4.89239e-87
0.6566 	-1.21364e-87
0.6573 	-1.03141e-87
0.658 	-7.93323e-88
0.6587 	-5.55237e-88
0.6594 	-2.94127e-87
0.6601 	-4.78297e-87
0.6608 	-2.14737e-87
0.6615 	-4.49906e-88
0.6622 	-3.92997e-88
0.6629 	-3.03558e-88
0.6636 	-2.14119e-88
0.6643 	-9.11129e-88
0.665 	-1.82264e-87
0.6657 	-8.93878e-88
0.6664 	-1.63464e-88
0.6671 	-1.46795e-88
0.6678 	-1.13885e-88
0.6685 	-8.09758e-89
0.6692 	-2.71641e-88
0.6699 	-5.8652e-88
0.6706 	-3.56365e-88
0.6713 	-5.82225e-89
0.672 	-5.37605e-89
0.6727 	-4.18963e-89
0.6734 	-3.00322e-89
0.6741 	-7.74532e-89
0.6748 	-1.84162e-88
0.6755 	-1.36912e-88
0.6762 	-2.8079e-89
0.6769 	-1.93068e-89
0.6776 	-1.51151e-89
0.6783 	-1.09233e-89
0.679 	-2.09006e-89
0.6797 	-5.63834e-89
0.6804 	-5.0901e-89
0.6811 	-1.46946e-89
0.6818 	-6.79986e-90
0.6825 	-5.34812e-90
0.6832 	-3.89637e-90
0.6839 	-5.23671e-90
0.6846 	-1.68154e-89
0.6853 	-1.83659e-89
0.686 	-6.54558e-90
0.6867 	-2.29624e-90
0.6874 	-1.85594e-90
0.6881 	-1.36299e-90
0.6888 	-1.17007e-90
0.6895 	-4.87822e-90
0.6902 	-6.4448e-90
0.6909 	-2.6575e-90
0.6916 	-7.56823e-91
0.6923 	-6.31675e-91
0.693 	-4.67546e-91
0.6937 	-3.03418e-91
0.6944 	-1.37391e-90
0.6951 	-2.20276e-90
0.6958 	-1.01185e-90
0.6965 	-2.45051e-91
0.6972 	-2.1945e-91
0.6979 	-1.78905e-91
0.6986 	-1.38361e-91
0.6993 	-5.67664e-91
0.7 	-1.12511e-90
