0 	1
0.0007 	1
0.0014 	1
0.0021 	1
0.0028 	1
0.0035 	1
0.0042 	1
0.0049 	1
0.0056 	1
0.0063 	1
0.007 	1
0.0077 	1
0.0084 	1
0.0091 	1
0.0098 	1
0.0105 	1
0.0112 	1
0.0119 	1
0.0126 	1
0.0133 	1
0.014 	1
0.0147 	1
0.0154 	1
0.0161 	1
0.0168 	1
0.0175 	1
0.0182 	1
0.0189 	1
0.0196 	1
0.0203 	1
0.021 	1
0.0217 	1
0.0224 	1
0.0231 	1
0.0238 	1
0.0245 	1
0.0252 	1
0.0259 	1
0.0266 	1
0.0273 	1
0.028 	1
0.0287 	1
0.0294 	1
0.0301 	1
0.0308 	1
0.0315 	1
0.0322 	1
0.0329 	1
0.0336 	1
0.0343 	1
0.035 	1
0.0357 	1
0.0364 	1
0.0371 	1
0.0378 	1
0.0385 	1
0.0392 	1
0.0399 	1
0.0406 	1
0.0413 	1
0.042 	1
0.0427 	1
0.0434 	1
0.0441 	1
0.0448 	1
0.0455 	1
0.0462 	1
0.0469 	1
0.0476 	1
0.0483 	1
0.049 	1
0.0497 	1
0.0504 	1
0.0511 	1
0.0518 	1
0.0525 	1
0.0532 	1
0.0539 	1
0.0546 	1
0.0553 	1
0.056 	1
0.0567 	1
0.0574 	1
0.0581 	1
0.0588 	1
0.0595 	1
0.0602 	1
0.0609 	1
0.0616 	1
0.0623 	1
0.063 	1
0.0637 	1
0.0644 	1
0.0651 	1
0.0658 	1
0.0665 	1
0.0672 	1
0.0679 	1
0.0686 	1
0.0693 	1
0.07 	1
0.0707 	1
0.0714 	1
0.0721 	1
0.0728 	1
0.0735 	1
0.0742 	1
0.0749 	1
0.0756 	1
0.0763 	1
0.077 	1
0.0777 	1
0.0784 	1
0.0791 	1
0.0798 	1
0.0805 	1
0.0812 	1
0.0819 	1
0.0826 	1
0.0833 	1
0.084 	1
0.0847 	1
0.0854 	1
0.0861 	1
0.0868 	1
0.0875 	1
0.0882 	1
0.0889 	1
0.0896 	1
0.0903 	1
0.091 	1
0.0917 	1
0.0924 	1
0.0931 	1
0.0938 	1
0.0945 	1
0.0952 	1
0.0959 	1
0.0966 	1
0.0973 	1
0.098 	1
0.0987 	1
0.0994 	1
0.1001 	1
0.1008 	1
0.1015 	1
0.1022 	1
0.1029 	1
0.1036 	1
0.1043 	1
0.105 	1
0.1057 	1
0.1064 	1
0.1071 	1
0.1078 	1
0.1085 	1
0.1092 	1
0.1099 	1
0.1106 	1
0.1113 	1
0.112 	1
0.1127 	1
0.1134 	1
0.1141 	1
0.1148 	1
0.1155 	1
0.1162 	1
0.1169 	1
0.1176 	1
0.1183 	1
0.119 	1
0.1197 	1
0.1204 	1
0.1211 	1
0.1218 	1
0.1225 	1
0.1232 	1
0.1239 	1
0.1246 	1
0.1253 	1
0.126 	1
0.1267 	1
0.1274 	1
0.1281 	1
0.1288 	1
0.1295 	1
0.1302 	1
0.1309 	1
0.1316 	1
0.1323 	1
0.133 	1
0.1337 	1
0.1344 	1
0.1351 	1
0.1358 	1
0.1365 	1
0.1372 	1
0.1379 	1
0.1386 	1
0.1393 	1
0.14 	1
0.1407 	1
0.1414 	1
0.1421 	1
0.1428 	1
0.1435 	1
0.1442 	1
0.1449 	1
0.1456 	1
0.1463 	1
0.147 	1
0.1477 	1
0.1484 	1
0.1491 	1
0.1498 	1
0.1505 	1
0.1512 	1
0.1519 	1
0.1526 	1
0.1533 	1
0.154 	1
0.1547 	1
0.1554 	1
0.1561 	1
0.1568 	1
0.1575 	1
0.1582 	1
0.1589 	1
0.1596 	1
0.1603 	1
0.161 	1
0.1617 	1
0.1624 	1
0.1631 	1
0.1638 	1
0.1645 	1
0.1652 	1
0.1659 	1
0.1666 	1
0.1673 	1
0.168 	1
0.1687 	1
0.1694 	1
0.1701 	1
0.1708 	1
0.1715 	1
0.1722 	1
0.1729 	1
0.1736 	1
0.1743 	1
0.175 	1
0.1757 	1
0.1764 	1
0.1771 	1
0.1778 	1
0.1785 	1
0.1792 	1
0.1799 	1
0.1806 	1
0.1813 	1
0.182 	1
0.1827 	1
0.1834 	1
0.1841 	1
0.1848 	1
0.1855 	1
0.1862 	1
0.1869 	1
0.1876 	1
0.1883 	1
0.189 	1
0.1897 	1
0.1904 	1
0.1911 	1
0.1918 	1
0.1925 	1
0.1932 	1
0.1939 	1
0.1946 	1
0.1953 	1
0.196 	1
0.1967 	1
0.1974 	1
0.1981 	1
0.1988 	1
0.1995 	1
0.2002 	1
0.2009 	1
0.2016 	1
0.2023 	1
0.203 	1
0.2037 	1
0.2044 	1
0.2051 	1
0.2058 	1
0.2065 	1
0.2072 	1
0.2079 	1
0.2086 	1
0.2093 	1
0.21 	1
0.2107 	1
0.2114 	1
0.2121 	1
0.2128 	1
0.2135 	1
0.2142 	1
0.2149 	1
0.2156 	1
0.2163 	1
0.217 	1
0.2177 	1
0.2184 	1
0.2191 	1
0.2198 	1
0.2205 	1
0.2212 	1
0.2219 	1
0.2226 	1
0.2233 	1
0.224 	1
0.2247 	1
0.2254 	1
0.2261 	0.999999
0.2268 	0.999999
0.2275 	0.999999
0.2282 	0.999999
0.2289 	0.999998
0.2296 	0.999998
0.2303 	0.999997
0.231 	0.999994
0.2317 	0.99999
0.2324 	0.999986
0.2331 	0.999983
0.2338 	0.999979
0.2345 	0.999975
0.2352 	0.999956
0.2359 	0.999921
0.2366 	0.999865
0.2373 	0.999809
0.238 	0.999753
0.2387 	0.999697
0.2394 	0.999641
0.2401 	0.999197
0.2408 	0.998613
0.2415 	0.997237
0.2422 	0.995862
0.2429 	0.994486
0.2436 	0.99311
0.2443 	0.991735
0.245 	0.981746
0.2457 	0.977157
0.2464 	0.958009
0.2471 	0.938867
0.2478 	0.919725
0.2485 	0.900583
0.2492 	0.881441
0.2499 	0.839212
0.2506 	0.78358
0.2513 	0.731732
0.252 	0.679889
0.2527 	0.628047
0.2534 	0.576204
0.2541 	0.524361
0.2548 	0.472525
0.2555 	0.408614
0.2562 	0.359258
0.2569 	0.309896
0.2576 	0.260535
0.2583 	0.211173
0.259 	0.161811
0.2597 	0.119695
0.2604 	0.109604
0.2611 	0.0928545
0.2618 	0.0761004
0.2625 	0.059345
0.2632 	0.0425895
0.2639 	0.0258341
0.2646 	0.00907863
0.2653 	0.00899374
0.266 	0.00754574
0.2667 	0.0061065
0.2674 	0.00466692
0.2681 	0.00322734
0.2688 	0.00178777
0.2695 	0.00034819
0.2702 	0.000140735
0.2709 	0.000118378
0.2716 	9.60596e-05
0.2723 	7.37304e-05
0.273 	5.14012e-05
0.2737 	2.9072e-05
0.2744 	6.74277e-06
0.2751 	2.61743e-07
0.2758 	2.21078e-07
0.2765 	1.8043e-07
0.2772 	1.39747e-07
0.2779 	9.90631e-08
0.2786 	5.83796e-08
0.2793 	1.76962e-08
0.28 	4.59685e-11
0.2807 	4.02952e-11
0.2814 	3.46222e-11
0.2821 	2.89407e-11
0.2828 	2.32592e-11
0.2835 	1.75778e-11
0.2842 	1.18963e-11
0.2849 	8.6177e-12
0.2856 	8.62573e-12
0.2863 	8.62375e-12
0.287 	8.62133e-12
0.2877 	8.61891e-12
0.2884 	8.61649e-12
0.2891 	8.61407e-12
0.2898 	8.59405e-12
0.2905 	8.56747e-12
0.2912 	8.51495e-12
0.2919 	8.46176e-12
0.2926 	8.40851e-12
0.2933 	8.35527e-12
0.294 	8.30202e-12
0.2947 	8.22812e-12
0.2954 	8.08869e-12
0.2961 	7.92433e-12
0.2968 	7.75933e-12
0.2975 	7.59414e-12
0.2982 	7.42895e-12
0.2989 	7.26377e-12
0.2996 	7.09858e-12
0.3003 	6.78141e-12
0.301 	6.48737e-12
0.3017 	6.18962e-12
0.3024 	5.89176e-12
0.3031 	5.5939e-12
0.3038 	5.29603e-12
0.3045 	4.99817e-12
0.3052 	4.63904e-12
0.3059 	4.28321e-12
0.3066 	3.94515e-12
0.3073 	3.60741e-12
0.308 	3.26968e-12
0.3087 	2.93194e-12
0.3094 	2.5942e-12
0.3101 	2.34746e-12
0.3108 	2.07937e-12
0.3115 	1.84323e-12
0.3122 	1.60779e-12
0.3129 	1.37235e-12
0.3136 	1.13692e-12
0.3143 	9.0148e-13
0.315 	7.78331e-13
0.3157 	6.6851e-13
0.3164 	5.741e-13
0.3171 	4.80241e-13
0.3178 	3.86382e-13
0.3185 	2.92522e-13
0.3192 	1.98663e-13
0.3199 	1.4363e-13
0.3206 	1.24529e-13
0.3213 	1.05181e-13
0.322 	8.60244e-14
0.3227 	6.68679e-14
0.3234 	4.77114e-14
0.3241 	2.85549e-14
0.3248 	1.46103e-14
0.3255 	1.28166e-14
0.3262 	1.0834e-14
0.3269 	8.87591e-15
0.3276 	6.91975e-15
0.3283 	4.96358e-15
0.329 	3.00742e-15
0.3297 	1.29801e-15
0.3304 	1.11193e-15
0.3311 	9.49598e-16
0.3318 	7.88798e-16
0.3325 	6.28416e-16
0.3332 	4.68034e-16
0.3339 	3.07652e-16
0.3346 	1.4727e-16
0.3353 	1.24361e-16
0.336 	1.06045e-16
0.3367 	8.8742e-17
0.3374 	7.14955e-17
0.3381 	5.42491e-17
0.3388 	3.70026e-17
0.3395 	1.97562e-17
0.3402 	1.51696e-17
0.3409 	1.29263e-17
0.3416 	1.09028e-17
0.3423 	8.88736e-18
0.343 	6.87191e-18
0.3437 	4.85647e-18
0.3444 	2.84102e-18
0.3451 	2.02728e-18
0.3458 	1.72614e-18
0.3465 	1.46962e-18
0.3472 	1.21448e-18
0.3479 	9.59343e-19
0.3486 	7.04202e-19
0.3493 	4.49062e-19
0.35 	3.0676e-19
0.3507 	2.57763e-19
0.3514 	2.19007e-19
0.3521 	1.80515e-19
0.3528 	1.42024e-19
0.3535 	1.03532e-19
0.3542 	6.50406e-20
0.3549 	3.98278e-20
0.3556 	3.29696e-20
0.3563 	2.77078e-20
0.357 	2.24897e-20
0.3577 	1.72715e-20
0.3584 	1.20534e-20
0.3591 	6.83529e-21
0.3598 	2.97118e-21
0.3605 	2.49442e-21
0.3612 	2.08084e-21
0.3619 	1.67086e-21
0.3626 	1.26116e-21
0.3633 	8.51454e-22
0.364 	4.41752e-22
0.3647 	8.69077e-23
0.3654 	7.63137e-23
0.3661 	6.36392e-23
0.3668 	5.1064e-23
0.3675 	3.85158e-23
0.3682 	2.59677e-23
0.3689 	1.34195e-23
0.3696 	8.71345e-25
0.3703 	7.02277e-25
0.371 	5.84884e-25
0.3717 	4.71767e-25
0.3724 	3.59049e-25
0.3731 	2.46331e-25
0.3738 	1.33613e-25
0.3745 	2.08956e-26
0.3752 	3.27607e-27
0.3759 	2.69004e-27
0.3766 	2.19146e-27
0.3773 	1.69376e-27
0.378 	1.19605e-27
0.3787 	6.9835e-28
0.3794 	2.00645e-28
0.3801 	4.45471e-29
0.3808 	3.57958e-29
0.3815 	2.93715e-29
0.3822 	2.2936e-29
0.3829 	1.65005e-29
0.3836 	1.0065e-29
0.3843 	3.62958e-30
0.385 	7.09214e-31
0.3857 	5.7094e-31
0.3864 	4.69799e-31
0.3871 	3.68438e-31
0.3878 	2.67076e-31
0.3885 	1.65715e-31
0.3892 	6.4354e-32
0.3899 	5.22666e-33
0.3906 	4.31792e-33
0.3913 	3.56547e-33
0.392 	2.81272e-33
0.3927 	2.05997e-33
0.3934 	1.30722e-33
0.3941 	5.54476e-34
0.3948 	9.86078e-36
0.3955 	8.61323e-36
0.3962 	7.14143e-36
0.3969 	5.6743e-36
0.3976 	4.20754e-36
0.3983 	2.74077e-36
0.399 	1.274e-36
0.3997 	2.95192e-39
0.4004 	2.74994e-39
0.4011 	2.2893e-39
0.4018 	1.83171e-39
0.4025 	1.37495e-39
0.4032 	9.18183e-40
0.4039 	4.61419e-40
0.4046 	4.65531e-42
0.4053 	2.00609e-43
0.406 	1.67434e-43
0.4067 	1.34859e-43
0.4074 	1.02389e-43
0.4081 	6.99191e-44
0.4088 	3.74492e-44
0.4095 	4.97938e-45
0.4102 	1.46203e-47
0.4109 	1.22208e-47
0.4116 	9.905e-48
0.4123 	7.59966e-48
0.413 	5.29432e-48
0.4137 	2.98898e-48
0.4144 	6.83635e-49
0.4151 	1.10338e-51
0.4158 	9.22289e-52
0.4165 	7.51995e-52
0.4172 	5.82618e-52
0.4179 	4.1324e-52
0.4186 	2.43863e-52
0.4193 	7.44852e-53
0.42 	8.85578e-56
0.4207 	7.38871e-56
0.4214 	6.05907e-56
0.4221 	4.73699e-56
0.4228 	3.41491e-56
0.4235 	2.09284e-56
0.4242 	7.70762e-57
0.4249 	7.49986e-60
0.4256 	6.36405e-60
0.4263 	5.24765e-60
0.427 	4.13733e-60
0.4277 	3.02701e-60
0.4284 	1.91669e-60
0.4291 	8.0637e-61
0.4298 	6.96397e-64
0.4305 	5.94535e-64
0.4312 	4.92885e-64
0.4319 	3.91642e-64
0.4326 	2.9043e-64
0.4333 	1.89219e-64
0.434 	8.80068e-65
0.4347 	7.18017e-68
0.4354 	6.09256e-68
0.4361 	5.07714e-68
0.4368 	4.06385e-68
0.4375 	3.05114e-68
0.4382 	2.03842e-68
0.4389 	1.02571e-68
0.4396 	1.2997e-70
0.4403 	6.93945e-72
0.441 	5.75888e-72
0.4417 	4.64174e-72
0.4424 	3.52488e-72
0.4431 	2.40802e-72
0.4438 	1.29116e-72
0.4445 	1.74296e-73
0.4452 	7.04772e-76
0.4459 	4.50683e-76
0.4466 	2.00359e-76
0.4473 	6.68586e-77
0.448 	-6.66419e-77
0.4487 	-2.00142e-76
0.4494 	-3.33643e-76
0.4501 	-8.22439e-76
0.4508 	-6.59583e-76
0.4515 	-9.74079e-76
0.4522 	-9.74524e-76
0.4529 	-9.74969e-76
0.4536 	-9.75415e-76
0.4543 	-9.7586e-76
0.455 	-2.41848e-75
0.4557 	-1.2657e-75
0.4564 	-1.77929e-75
0.4571 	-1.78006e-75
0.4578 	-1.78083e-75
0.4585 	-1.7816e-75
0.4592 	-1.78237e-75
0.4599 	-3.65059e-75
0.4606 	-1.99025e-75
0.4613 	-2.62949e-75
0.462 	-2.63047e-75
0.4627 	-2.63145e-75
0.4634 	-2.63243e-75
0.4641 	-2.63341e-75
0.4648 	-4.37947e-75
0.4655 	-2.72509e-75
0.4662 	-3.29493e-75
0.4669 	-3.33656e-75
0.4676 	-3.33756e-75
0.4683 	-3.33856e-75
0.469 	-3.33956e-75
0.4697 	-4.35894e-75
0.4704 	-3.34666e-75
0.4711 	-3.68193e-75
0.4718 	-3.75442e-75
0.4725 	-3.75523e-75
0.4732 	-3.75605e-75
0.4739 	-3.75686e-75
0.4746 	-3.75767e-75
0.4753 	-4.87505e-75
0.476 	-3.8084e-75
0.4767 	-3.8291e-75
0.4774 	-3.8296e-75
0.4781 	-3.83009e-75
0.4788 	-3.83058e-75
0.4795 	-3.83107e-75
0.4802 	-6.19304e-75
0.4809 	-3.69148e-75
0.4816 	-3.59556e-75
0.4823 	-3.59569e-75
0.483 	-3.59582e-75
0.4837 	-3.59596e-75
0.4844 	-3.59609e-75
0.4851 	-6.93242e-75
0.4858 	-3.38171e-75
0.4865 	-3.14702e-75
0.4872 	-3.14685e-75
0.4879 	-3.14668e-75
0.4886 	-3.14651e-75
0.4893 	-3.14634e-75
0.49 	-7.03086e-75
0.4907 	-2.94621e-75
0.4914 	-2.5936e-75
0.4921 	-2.59322e-75
0.4928 	-2.59285e-75
0.4935 	-2.59248e-75
0.4942 	-2.59211e-75
0.4949 	-4.95014e-75
0.4956 	-2.45334e-75
0.4963 	-2.02992e-75
0.497 	-2.02946e-75
0.4977 	-2.029e-75
0.4984 	-2.02853e-75
0.4991 	-2.02807e-75
0.4998 	-3.22721e-75
0.5005 	-1.96108e-75
0.5012 	-1.54905e-75
0.5019 	-1.51919e-75
0.5026 	-1.51872e-75
0.5033 	-1.51825e-75
0.504 	-1.51778e-75
0.5047 	-1.93652e-75
0.5054 	-1.51066e-75
0.5061 	-1.16796e-75
0.5068 	-1.09419e-75
0.5075 	-1.09377e-75
0.5082 	-1.09335e-75
0.5089 	-1.09293e-75
0.5096 	-1.09251e-75
0.5103 	-1.39349e-75
0.511 	-8.57655e-76
0.5117 	-7.61831e-76
0.5124 	-7.61484e-76
0.5131 	-7.61136e-76
0.5138 	-7.60788e-76
0.5145 	-7.6044e-76
0.5152 	-1.21141e-75
0.5159 	-6.14155e-76
0.5166 	-5.14558e-76
0.5173 	-5.14287e-76
0.518 	-5.14016e-76
0.5187 	-5.13744e-76
0.5194 	-5.13473e-76
0.5201 	-9.83586e-76
0.5208 	-4.29271e-76
0.5215 	-3.37986e-76
0.5222 	-3.37783e-76
0.5229 	-3.37581e-76
0.5236 	-3.37378e-76
0.5243 	-3.37175e-76
0.525 	-7.56529e-76
0.5257 	-2.93053e-76
0.5264 	-2.16255e-76
0.5271 	-2.16109e-76
0.5278 	-2.15962e-76
0.5285 	-2.15815e-76
0.5292 	-2.15669e-76
0.5299 	-4.15854e-76
0.5306 	-1.9547e-76
0.5313 	-1.34925e-76
0.532 	-1.34821e-76
0.5327 	-1.34718e-76
0.5334 	-1.34614e-76
0.5341 	-1.34511e-76
0.5348 	-2.16179e-76
0.5355 	-1.27405e-76
0.5362 	-8.51541e-77
0.5369 	-8.20698e-77
0.5376 	-8.19983e-77
0.5383 	-8.19269e-77
0.539 	-8.18554e-77
0.5397 	-1.0484e-76
0.5404 	-8.11453e-77
0.5411 	-5.45149e-77
0.5418 	-4.87704e-77
0.5425 	-4.8722e-77
0.5432 	-4.86736e-77
0.5439 	-4.86252e-77
0.5446 	-4.85769e-77
0.5453 	-6.2232e-77
0.546 	-3.41607e-77
0.5467 	-2.8305e-77
0.5474 	-2.82729e-77
0.5481 	-2.82408e-77
0.5488 	-2.82087e-77
0.5495 	-2.81767e-77
0.5502 	-4.54841e-77
0.5509 	-2.09432e-77
0.5516 	-1.60511e-77
0.5523 	-1.60303e-77
0.553 	-1.60094e-77
0.5537 	-1.59886e-77
0.5544 	-1.59678e-77
0.5551 	-3.1127e-77
0.5558 	-1.25584e-77
0.5565 	-8.89831e-78
0.5572 	-8.88508e-78
0.5579 	-8.87184e-78
0.5586 	-8.85861e-78
0.5593 	-8.84537e-78
0.56 	-2.02152e-77
0.5607 	-7.36462e-78
0.5614 	-4.82529e-78
0.5621 	-4.81706e-78
0.5628 	-4.80884e-78
0.5635 	-4.80061e-78
0.5642 	-4.79239e-78
0.5649 	-9.34657e-78
0.5656 	-4.22377e-78
0.5663 	-2.56104e-78
0.567 	-2.55604e-78
0.5677 	-2.55105e-78
0.5684 	-2.54605e-78
0.5691 	-2.54106e-78
0.5698 	-4.10043e-78
0.5705 	-2.3695e-78
0.5712 	-1.40026e-78
0.5719 	-1.32827e-78
0.5726 	-1.32531e-78
0.5733 	-1.32234e-78
0.574 	-1.31938e-78
0.5747 	-1.68406e-78
0.5754 	-1.30057e-78
0.5761 	-7.87655e-79
0.5768 	-6.76393e-79
0.5775 	-6.74674e-79
0.5782 	-6.72955e-79
0.5789 	-6.71236e-79
0.5796 	-6.69516e-79
0.5803 	-8.53568e-79
0.581 	-4.33165e-79
0.5817 	-3.37713e-79
0.5824 	-3.36739e-79
0.5831 	-3.35764e-79
0.5838 	-3.3479e-79
0.5845 	-3.33815e-79
0.5852 	-5.37158e-79
0.5859 	-2.32947e-79
0.5866 	-1.65408e-79
0.5873 	-1.64868e-79
0.588 	-1.64328e-79
0.5887 	-1.63788e-79
0.5894 	-1.63248e-79
0.5901 	-3.17079e-79
0.5908 	-1.22541e-79
0.5915 	-7.95104e-80
0.5922 	-7.92179e-80
0.5929 	-7.89254e-80
0.5936 	-7.86328e-80
0.5943 	-7.83403e-80
0.595 	-1.78145e-79
0.5957 	-6.30795e-80
0.5964 	-3.75256e-80
0.5971 	-3.73706e-80
0.5978 	-3.72156e-80
0.5985 	-3.70606e-80
0.5992 	-3.69056e-80
0.5999 	-7.14226e-80
0.6006 	-3.17864e-80
0.6013 	-1.7395e-80
0.602 	-1.73146e-80
0.6027 	-1.72342e-80
0.6034 	-1.71539e-80
0.6041 	-1.70735e-80
0.6048 	-2.72796e-80
0.6055 	-1.56858e-80
0.6062 	-8.43715e-81
0.6069 	-7.88152e-81
0.6076 	-7.84073e-81
0.6083 	-7.79993e-81
0.609 	-7.75914e-81
0.6097 	-9.79086e-81
0.6104 	-7.58307e-81
0.6111 	-4.25481e-81
0.6118 	-3.52569e-81
0.6125 	-3.50542e-81
0.6132 	-3.48515e-81
0.6139 	-3.46488e-81
0.6146 	-3.44461e-81
0.6153 	-4.34132e-81
0.616 	-2.09245e-81
0.6167 	-1.55034e-81
0.6174 	-1.54047e-81
0.6181 	-1.53061e-81
0.6188 	-1.52074e-81
0.6195 	-1.51088e-81
0.6202 	-2.40211e-81
0.6209 	-1.00462e-81
0.6216 	-6.70282e-82
0.6223 	-6.6558e-82
0.623 	-6.60877e-82
0.6237 	-6.56175e-82
0.6244 	-6.51473e-82
0.6251 	-1.24884e-81
0.6258 	-4.71339e-82
0.6265 	-2.84993e-82
0.6272 	-2.82796e-82
0.6279 	-2.80599e-82
0.6286 	-2.78403e-82
0.6293 	-2.76206e-82
0.63 	-6.19021e-82
0.6307 	-2.16271e-82
0.6314 	-1.19191e-82
0.6321 	-1.18185e-82
0.6328 	-1.17179e-82
0.6335 	-1.16174e-82
0.6342 	-1.15168e-82
0.6349 	-2.19456e-82
0.6356 	-9.71202e-83
0.6363 	-4.90426e-83
0.637 	-4.85911e-83
0.6377 	-4.81395e-83
0.6384 	-4.7688e-83
0.6391 	-4.72365e-83
0.6398 	-7.42786e-83
0.6405 	-4.27109e-83
0.6412 	-2.13671e-83
0.6419 	-1.9658e-83
0.6426 	-1.94592e-83
0.6433 	-1.92604e-83
0.644 	-1.90616e-83
0.6447 	-2.36821e-83
0.6454 	-1.84048e-83
0.6461 	-9.74918e-84
0.6468 	-7.82696e-84
0.6475 	-7.74113e-84
0.6482 	-7.6553e-84
0.6489 	-7.56947e-84
0.6496 	-7.48364e-84
0.6503 	-9.29559e-84
0.651 	-4.32371e-84
0.6517 	-3.06765e-84
0.6524 	-3.03129e-84
0.6531 	-2.99492e-84
0.6538 	-2.95856e-84
0.6545 	-2.92219e-84
0.6552 	-4.57046e-84
0.6559 	-1.86812e-84
0.6566 	-1.18376e-84
0.6573 	-1.16864e-84
0.658 	-1.15352e-84
0.6587 	-1.1384e-84
0.6594 	-1.12328e-84
0.6601 	-2.11426e-84
0.6608 	-7.87743e-85
0.6615 	-4.49838e-85
0.6622 	-4.43666e-85
0.6629 	-4.37494e-85
0.6636 	-4.31322e-85
0.6643 	-4.2515e-85
0.665 	-9.33742e-85
0.6657 	-3.24648e-85
0.6664 	-1.68374e-85
0.6671 	-1.659e-85
0.6678 	-1.63426e-85
0.6685 	-1.60952e-85
0.6692 	-1.58478e-85
0.6699 	-2.95876e-85
0.6706 	-1.30918e-85
0.6713 	-6.20898e-86
0.672 	-6.11157e-86
0.6727 	-6.01417e-86
0.6734 	-5.91676e-86
0.6741 	-5.81935e-86
0.6748 	-8.97086e-86
0.6755 	-5.17099e-86
0.6762 	-2.44807e-86
0.6769 	-2.21858e-86
0.6776 	-2.18089e-86
0.6783 	-2.14321e-86
0.679 	-2.10552e-86
0.6797 	-2.56955e-86
0.6804 	-2.00222e-86
0.6811 	-1.01633e-86
0.6818 	-7.93812e-87
0.6825 	-7.7948e-87
0.6832 	-7.65148e-87
0.6839 	-7.50816e-87
0.6846 	-7.36484e-87
0.6853 	-9.0082e-87
0.686 	-4.09021e-87
0.6867 	-2.8002e-87
0.6874 	-2.7466e-87
0.6881 	-2.69301e-87
0.6888 	-2.63941e-87
0.6895 	-2.58582e-87
0.6902 	-3.9716e-87
0.6909 	-1.60143e-87
0.6916 	-9.74105e-88
0.6923 	-9.54391e-88
0.693 	-9.34676e-88
0.6937 	-9.14961e-88
0.6944 	-8.95247e-88
0.6951 	-1.65081e-87
0.6958 	-6.77817e-88
0.6965 	-4.71234e-88
0.6972 	-4.65979e-88
0.6979 	-4.60724e-88
0.6986 	-4.55469e-88
0.6993 	-4.50214e-88
0.7 	-9.82739e-88
