0 	1
0.0007 	1
0.0014 	1
0.0021 	1
0.0028 	1
0.0035 	1
0.0042 	1
0.0049 	1
0.0056 	1
0.0063 	1
0.007 	1
0.0077 	1
0.0084 	1
0.0091 	1
0.0098 	1
0.0105 	1
0.0112 	1
0.0119 	1
0.0126 	1
0.0133 	1
0.014 	1
0.0147 	1
0.0154 	1
0.0161 	1
0.0168 	1
0.0175 	1
0.0182 	1
0.0189 	1
0.0196 	1
0.0203 	1
0.021 	1
0.0217 	1
0.0224 	1
0.0231 	1
0.0238 	1
0.0245 	1
0.0252 	1
0.0259 	1
0.0266 	1
0.0273 	1
0.028 	1
0.0287 	1
0.0294 	1
0.0301 	1
0.0308 	1
0.0315 	1
0.0322 	1
0.0329 	1
0.0336 	1
0.0343 	1
0.035 	1
0.0357 	1
0.0364 	1
0.0371 	1
0.0378 	1
0.0385 	1
0.0392 	1
0.0399 	1
0.0406 	1
0.0413 	1
0.042 	1
0.0427 	1
0.0434 	1
0.0441 	1
0.0448 	1
0.0455 	1
0.0462 	1
0.0469 	1
0.0476 	1
0.0483 	1
0.049 	1
0.0497 	1
0.0504 	1
0.0511 	1
0.0518 	1
0.0525 	1
0.0532 	1
0.0539 	1
0.0546 	1
0.0553 	1
0.056 	1
0.0567 	1
0.0574 	1
0.0581 	1
0.0588 	1
0.0595 	1
0.0602 	1
0.0609 	1
0.0616 	1
0.0623 	1
0.063 	1
0.0637 	1
0.0644 	1
0.0651 	1
0.0658 	1
0.0665 	1
0.0672 	1
0.0679 	1
0.0686 	1
0.0693 	1
0.07 	1
0.0707 	1
0.0714 	1
0.0721 	1
0.0728 	1
0.0735 	1
0.0742 	1
0.0749 	1
0.0756 	1
0.0763 	1
0.077 	1
0.0777 	1
0.0784 	1
0.0791 	1
0.0798 	1
0.0805 	1
0.0812 	1
0.0819 	1
0.0826 	1
0.0833 	1
0.084 	1
0.0847 	1
0.0854 	1
0.0861 	1
0.0868 	1
0.0875 	1
0.0882 	1
0.0889 	1
0.0896 	1
0.0903 	1
0.091 	1
0.0917 	1
0.0924 	1
0.0931 	1
0.0938 	1
0.0945 	1
0.0952 	1
0.0959 	1
0.0966 	1
0.0973 	1
0.098 	1
0.0987 	1
0.0994 	1
0.1001 	1
0.1008 	1
0.1015 	1
0.1022 	1
0.1029 	1
0.1036 	1
0.1043 	1
0.105 	1
0.1057 	1
0.1064 	1
0.1071 	1
0.1078 	1
0.1085 	1
0.1092 	1
0.1099 	1
0.1106 	1
0.1113 	1
0.112 	1
0.1127 	1
0.1134 	1
0.1141 	1
0.1148 	1
0.1155 	1
0.1162 	1
0.1169 	1
0.1176 	1
0.1183 	1
0.119 	1
0.1197 	1
0.1204 	1
0.1211 	1
0.1218 	1
0.1225 	1
0.1232 	1
0.1239 	1
0.1246 	1
0.1253 	1
0.126 	1
0.1267 	1
0.1274 	1
0.1281 	1
0.1288 	1
0.1295 	1
0.1302 	1
0.1309 	1
0.1316 	1
0.1323 	1
0.133 	1
0.1337 	1
0.1344 	1
0.1351 	1
0.1358 	1
0.1365 	1
0.1372 	1
0.1379 	1
0.1386 	1
0.1393 	1
0.14 	1
0.1407 	1
0.1414 	1
0.1421 	1
0.1428 	1
0.1435 	1
0.1442 	1
0.1449 	1
0.1456 	1
0.1463 	1
0.147 	1
0.1477 	1
0.1484 	1
0.1491 	1
0.1498 	1
0.1505 	1
0.1512 	1
0.1519 	1
0.1526 	1
0.1533 	1
0.154 	1
0.1547 	1
0.1554 	1
0.1561 	1
0.1568 	1
0.1575 	1
0.1582 	1
0.1589 	1
0.1596 	1
0.1603 	1
0.161 	1
0.1617 	1
0.1624 	1
0.1631 	1
0.1638 	1
0.1645 	1
0.1652 	1
0.1659 	1
0.1666 	1
0.1673 	1
0.168 	1
0.1687 	1
0.1694 	1
0.1701 	1
0.1708 	1
0.1715 	1
0.1722 	1
0.1729 	1
0.1736 	1
0.1743 	1
0.175 	1
0.1757 	1
0.1764 	1
0.1771 	1
0.1778 	1
0.1785 	1
0.1792 	1
0.1799 	1
0.1806 	1
0.1813 	1
0.182 	1
0.1827 	1
0.1834 	1
0.1841 	1
0.1848 	1
0.1855 	1
0.1862 	1
0.1869 	1
0.1876 	1
0.1883 	1
0.189 	1
0.1897 	1
0.1904 	1
0.1911 	1
0.1918 	1
0.1925 	1
0.1932 	1
0.1939 	1
0.1946 	1
0.1953 	1
0.196 	1
0.1967 	1
0.1974 	1
0.1981 	1
0.1988 	1
0.1995 	1
0.2002 	1
0.2009 	1
0.2016 	1
0.2023 	1
0.203 	1
0.2037 	1
0.2044 	1
0.2051 	1
0.2058 	1
0.2065 	1
0.2072 	1
0.2079 	1
0.2086 	1
0.2093 	1
0.21 	1
0.2107 	1
0.2114 	1
0.2121 	1
0.2128 	1
0.2135 	1
0.2142 	1
0.2149 	1
0.2156 	1
0.2163 	1
0.217 	1
0.2177 	1
0.2184 	1
0.2191 	1
0.2198 	1
0.2205 	1
0.2212 	1
0.2219 	1
0.2226 	1
0.2233 	1
0.224 	1
0.2247 	1
0.2254 	1
0.2261 	1
0.2268 	1
0.2275 	1
0.2282 	1
0.2289 	1
0.2296 	1
0.2303 	1
0.231 	1
0.2317 	1
0.2324 	1
0.2331 	1
0.2338 	1
0.2345 	1
0.2352 	1
0.2359 	1
0.2366 	1
0.2373 	1
0.238 	1
0.2387 	1
0.2394 	1
0.2401 	1
0.2408 	1
0.2415 	1
0.2422 	1
0.2429 	1
0.2436 	1
0.2443 	1
0.245 	1
0.2457 	1
0.2464 	1
0.2471 	1
0.2478 	1
0.2485 	1
0.2492 	1
0.2499 	1
0.2506 	1
0.2513 	1
0.252 	0.999999
0.2527 	0.999999
0.2534 	0.999999
0.2541 	0.999999
0.2548 	0.999999
0.2555 	0.999998
0.2562 	0.999995
0.2569 	0.999989
0.2576 	0.999983
0.2583 	0.999977
0.259 	0.999971
0.2597 	0.999963
0.2604 	0.999955
0.2611 	0.999692
0.2618 	0.999165
0.2625 	0.998638
0.2632 	0.998111
0.2639 	0.997584
0.2646 	0.996893
0.2653 	0.996083
0.266 	0.99161
0.2667 	0.980212
0.2674 	0.968812
0.2681 	0.957411
0.2688 	0.946011
0.2695 	0.931685
0.2702 	0.912468
0.2709 	0.886876
0.2716 	0.834873
0.2723 	0.782863
0.273 	0.730854
0.2737 	0.678844
0.2744 	0.620456
0.2751 	0.539845
0.2758 	0.461014
0.2765 	0.403171
0.2772 	0.345332
0.2779 	0.287494
0.2786 	0.229655
0.2793 	0.173427
0.28 	0.135707
0.2807 	0.0976795
0.2814 	0.0785985
0.2821 	0.0611779
0.2828 	0.0437573
0.2835 	0.0263367
0.2842 	0.00891613
0.2849 	0.0063164
0.2856 	0.00458126
0.2863 	0.00360237
0.287 	0.00284755
0.2877 	0.00209272
0.2884 	0.00133789
0.2891 	0.000583063
0.2898 	0.00034835
0.2905 	0.000248503
0.2912 	0.000185687
0.2919 	0.000144158
0.2926 	0.000102632
0.2933 	6.11059e-05
0.294 	1.95797e-05
0.2947 	4.42544e-06
0.2954 	3.02795e-06
0.2961 	1.9871e-06
0.2968 	1.54526e-06
0.2975 	1.10348e-06
0.2982 	6.61702e-07
0.2989 	2.19923e-07
0.2996 	3.27324e-09
0.3003 	2.42767e-09
0.301 	1.27053e-09
0.3017 	9.96987e-10
0.3024 	7.23506e-10
0.3031 	4.50025e-10
0.3038 	1.76544e-10
0.3045 	3.61682e-12
0.3052 	3.78175e-12
0.3059 	3.8377e-12
0.3066 	4.118e-12
0.3073 	4.39814e-12
0.308 	4.67827e-12
0.3087 	4.95841e-12
0.3094 	5.26667e-12
0.3101 	5.66882e-12
0.3108 	6.03876e-12
0.3115 	6.19372e-12
0.3122 	6.34862e-12
0.3129 	6.50351e-12
0.3136 	6.65841e-12
0.3143 	6.80193e-12
0.315 	6.81859e-12
0.3157 	6.85091e-12
0.3164 	6.74515e-12
0.3171 	6.62726e-12
0.3178 	6.50936e-12
0.3185 	6.39146e-12
0.3192 	6.27356e-12
0.3199 	6.06168e-12
0.3206 	5.87015e-12
0.3213 	5.59097e-12
0.322 	5.28541e-12
0.3227 	4.97986e-12
0.3234 	4.6743e-12
0.3241 	4.36875e-12
0.3248 	4.00041e-12
0.3255 	3.63193e-12
0.3262 	3.30006e-12
0.3269 	2.98607e-12
0.3276 	2.67209e-12
0.3283 	2.35811e-12
0.329 	2.04413e-12
0.3297 	1.75393e-12
0.3304 	1.47567e-12
0.3311 	1.25126e-12
0.3318 	1.08373e-12
0.3325 	9.16173e-13
0.3332 	7.4862e-13
0.3339 	5.81067e-13
0.3346 	4.51009e-13
0.3353 	3.53739e-13
0.336 	2.7185e-13
0.3367 	2.26504e-13
0.3374 	1.81118e-13
0.3381 	1.35733e-13
0.3388 	9.03479e-14
0.3395 	5.69676e-14
0.3402 	4.31663e-14
0.3409 	2.92723e-14
0.3416 	2.37705e-14
0.3423 	1.82549e-14
0.343 	1.27393e-14
0.3437 	7.22373e-15
0.3444 	2.83516e-15
0.3451 	2.21945e-15
0.3458 	1.28321e-15
0.3465 	1.03221e-15
0.3472 	7.7979e-16
0.3479 	5.27366e-16
0.3486 	2.74941e-16
0.3493 	4.35334e-17
0.35 	3.92746e-17
0.3507 	1.94922e-17
0.3514 	1.4594e-17
0.3521 	1.10368e-17
0.3528 	7.47957e-18
0.3535 	3.92237e-18
0.3542 	3.65165e-19
0.3549 	1.77614e-19
0.3556 	8.65588e-20
0.3563 	5.22095e-20
0.357 	3.9806e-20
0.3577 	2.74025e-20
0.3584 	1.4999e-20
0.3591 	2.59548e-21
0.3598 	1.64759e-22
0.3605 	9.02201e-23
0.3612 	3.63076e-23
0.3619 	2.79632e-23
0.3626 	1.96018e-23
0.3633 	1.12403e-23
0.364 	2.87887e-24
0.3647 	2.48757e-26
0.3654 	1.81003e-26
0.3661 	4.06492e-27
0.3668 	3.16429e-27
0.3675 	2.25669e-27
0.3682 	1.34909e-27
0.3689 	4.41492e-28
0.3696 	1.77627e-30
0.3703 	1.76076e-30
0.371 	3.35986e-31
0.3717 	2.64122e-31
0.3724 	1.91341e-31
0.3731 	1.1856e-31
0.3738 	4.57782e-32
0.3745 	1.26267e-34
0.3752 	1.66655e-34
0.3759 	2.84944e-35
0.3766 	2.26049e-35
0.3773 	1.66113e-35
0.378 	1.06177e-35
0.3787 	4.62407e-36
0.3794 	8.86558e-39
0.3801 	1.53914e-38
0.3808 	2.42071e-39
0.3815 	1.93689e-39
0.3822 	1.44203e-39
0.3829 	9.47164e-40
0.3836 	4.52303e-40
0.3843 	6.05621e-43
0.385 	1.38852e-42
0.3857 	2.94616e-43
0.3864 	1.63447e-43
0.3871 	1.23154e-43
0.3878 	8.28617e-44
0.3885 	4.25689e-44
0.3892 	2.27617e-45
0.3899 	1.01332e-46
0.3906 	3.58419e-47
0.3913 	1.34721e-47
0.392 	1.02636e-47
0.3927 	7.05524e-48
0.3934 	3.84682e-48
0.3941 	6.38407e-49
0.3948 	7.25836e-51
0.3955 	3.78179e-51
0.3962 	1.08102e-51
0.3969 	8.32515e-52
0.3976 	5.83369e-52
0.3983 	3.34223e-52
0.399 	8.50765e-53
0.3997 	5.06744e-55
0.4004 	3.68017e-55
0.4011 	8.47882e-56
0.4018 	6.59948e-56
0.4025 	4.70524e-56
0.4032 	2.81099e-56
0.4039 	9.16751e-57
0.4046 	3.43337e-59
0.4053 	3.39112e-59
0.406 	6.51511e-60
0.4067 	5.12149e-60
0.4074 	3.70924e-60
0.4081 	2.29699e-60
0.4088 	8.84733e-61
0.4095 	2.24757e-63
0.4102 	2.99678e-63
0.4109 	4.94001e-64
0.4116 	3.91935e-64
0.4123 	2.87945e-64
0.413 	1.83955e-64
0.4137 	7.99655e-65
0.4144 	1.41318e-67
0.4151 	2.56192e-67
0.4158 	3.69803e-68
0.4165 	2.9594e-68
0.4172 	2.20281e-68
0.4179 	1.44621e-68
0.4186 	6.89621e-69
0.4193 	8.47563e-72
0.42 	2.13413e-71
0.4207 	4.23357e-72
0.4214 	2.21702e-72
0.4221 	1.67015e-72
0.4228 	1.12327e-72
0.4235 	5.764e-73
0.4242 	2.95269e-74
0.4249 	1.42445e-75
0.4256 	4.85657e-76
0.4263 	1.64763e-76
0.427 	1.25501e-76
0.4277 	8.62392e-77
0.4284 	4.69772e-77
0.4291 	7.71517e-78
0.4298 	9.35836e-80
0.4305 	4.82036e-80
0.4312 	1.21656e-80
0.4319 	9.3674e-81
0.4326 	6.56196e-81
0.4333 	3.75653e-81
0.434 	9.51094e-82
0.4347 	6.03365e-84
0.4354 	4.42306e-84
0.4361 	8.92804e-85
0.4368 	6.9478e-85
0.4375 	4.95218e-85
0.4382 	2.95657e-85
0.4389 	9.60953e-86
0.4396 	3.80877e-88
0.4403 	3.86443e-88
0.441 	6.51081e-89
0.4417 	5.11688e-89
0.4424 	3.70496e-89
0.4431 	2.29303e-89
0.4438 	8.8111e-90
0.4445 	2.34365e-92
0.4452 	3.26641e-92
0.4459 	4.72813e-93
0.4466 	3.75012e-93
0.4473 	2.75448e-93
0.448 	1.75885e-93
0.4487 	7.63217e-94
0.4494 	1.38983e-96
0.4501 	2.6891e-96
0.4508 	3.41011e-97
0.4515 	2.728e-97
0.4522 	2.03014e-97
0.4529 	1.33228e-97
0.4536 	6.34414e-98
0.4543 	7.83452e-101
0.455 	2.17499e-100
0.4557 	4.03493e-101
0.4564 	1.9748e-101
0.4571 	1.48735e-101
0.4578 	9.99893e-102
0.4585 	5.12441e-102
0.4592 	2.4989e-103
0.4599 	1.01506e-104
0.4606 	2.43483e-105
0.4613 	8.70317e-106
0.462 	5.3125e-106
0.4627 	1.92183e-106
0.4634 	-1.46883e-106
0.4641 	-4.8595e-106
0.4648 	-1.18417e-105
0.4655 	-8.47994e-106
0.4662 	-2.03662e-106
0.4669 	-1.62709e-106
0.4676 	-1.61613e-106
0.4683 	-1.60517e-106
0.469 	-1.59421e-106
0.4697 	-3.09211e-106
0.4704 	-2.76854e-106
0.4711 	-8.02465e-107
0.4718 	-4.47268e-107
0.4725 	-4.43549e-107
0.4732 	-4.3983e-107
0.4739 	-4.36111e-107
0.4746 	-7.56472e-107
0.4753 	-8.44532e-107
0.476 	-2.81246e-107
0.4767 	-1.1796e-107
0.4774 	-1.16912e-107
0.4781 	-1.15865e-107
0.4788 	-1.14818e-107
0.4795 	-1.75742e-107
0.4802 	-2.45303e-107
0.4809 	-9.07847e-108
0.4816 	-3.00774e-108
0.4823 	-2.97985e-108
0.483 	-2.95196e-108
0.4837 	-2.92406e-108
0.4844 	-3.88048e-108
0.4851 	-6.83053e-108
0.4858 	-2.7476e-108
0.4865 	-7.43458e-109
0.4872 	-7.36318e-109
0.4879 	-7.29179e-109
0.4886 	-7.2204e-109
0.4893 	-8.11517e-109
0.49 	-1.83033e-108
0.4907 	-8.10962e-109
0.4914 	-1.78484e-109
0.4921 	-1.76718e-109
0.4928 	-1.74952e-109
0.4935 	-1.73187e-109
0.4942 	-1.71421e-109
0.4949 	-4.03618e-109
0.4956 	-2.29157e-109
0.4963 	-4.16664e-110
0.497 	-4.1243e-110
0.4977 	-4.08196e-110
0.4984 	-4.03963e-110
0.4991 	-3.99729e-110
0.4998 	-8.59014e-110
0.5005 	-6.1509e-110
0.5012 	-1.26064e-110
0.5019 	-9.37291e-111
0.5026 	-9.27432e-111
0.5033 	-9.17573e-111
0.504 	-9.07715e-111
0.5047 	-1.76429e-110
0.5054 	-1.57961e-110
0.5061 	-4.24774e-111
0.5068 	-2.07577e-111
0.5075 	-2.05343e-111
0.5082 	-2.03109e-111
0.5089 	-2.00875e-111
0.5096 	-3.49243e-111
0.5103 	-3.89914e-111
0.511 	-1.25095e-111
0.5117 	-4.48568e-112
0.5124 	-4.43637e-112
0.5131 	-4.38705e-112
0.5138 	-4.33774e-112
0.5145 	-6.65362e-112
0.5152 	-9.28864e-112
0.5159 	-3.3808e-112
0.5166 	-9.46429e-113
0.5173 	-9.35809e-113
0.518 	-9.25189e-113
0.5187 	-9.14569e-113
0.5194 	-1.21597e-112
0.5201 	-2.14098e-112
0.5208 	-8.57574e-113
0.5215 	-1.95003e-113
0.5222 	-1.92769e-113
0.5229 	-1.90536e-113
0.5236 	-1.88302e-113
0.5243 	-2.11958e-113
0.525 	-4.78263e-113
0.5257 	-2.11819e-113
0.5264 	-3.92613e-114
0.5271 	-3.88025e-114
0.5278 	-3.83438e-114
0.5285 	-3.7885e-114
0.5292 	-3.74263e-114
0.5299 	-8.84388e-114
0.5306 	-5.01992e-114
0.5313 	-7.72899e-115
0.532 	-7.6369e-115
0.5327 	-7.54481e-115
0.5334 	-7.45272e-115
0.5341 	-7.36064e-115
0.5348 	-1.58693e-114
0.5355 	-1.13616e-114
0.5362 	-2.09402e-115
0.5369 	-1.47055e-115
0.5376 	-1.45247e-115
0.5383 	-1.43439e-115
0.539 	-1.41631e-115
0.5397 	-2.76081e-115
0.5404 	-2.47174e-115
0.5411 	-6.31435e-116
0.5418 	-2.77191e-116
0.5425 	-2.73718e-116
0.5432 	-2.70244e-116
0.5439 	-2.66771e-116
0.5446 	-4.64988e-116
0.5453 	-5.19163e-116
0.546 	-1.62314e-116
0.5467 	-5.11779e-117
0.5474 	-5.05245e-117
0.5481 	-4.9871e-117
0.5488 	-4.92176e-117
0.5495 	-7.56581e-117
0.5502 	-1.05633e-116
0.5509 	-3.8003e-117
0.5516 	-9.25958e-118
0.5523 	-9.13914e-118
0.553 	-9.0187e-118
0.5537 	-8.89826e-118
0.5544 	-1.18518e-117
0.5551 	-2.08714e-117
0.5558 	-8.33571e-118
0.5565 	-1.64257e-118
0.5572 	-1.62081e-118
0.5579 	-1.59905e-118
0.5586 	-1.5773e-118
0.5593 	-1.77792e-118
0.56 	-4.01263e-118
0.5607 	-1.77678e-118
0.5614 	-2.85824e-119
0.5621 	-2.81968e-119
0.5628 	-2.78113e-119
0.5635 	-2.74257e-119
0.5642 	-2.70402e-119
0.5649 	-6.4103e-119
0.5656 	-3.63813e-119
0.5663 	-4.88112e-120
0.567 	-4.8141e-120
0.5677 	-4.74707e-120
0.5684 	-4.68004e-120
0.5691 	-4.61302e-120
0.5698 	-9.97415e-120
0.5705 	-7.14055e-120
0.5712 	-1.21077e-120
0.5719 	-8.07011e-121
0.5726 	-7.95573e-121
0.5733 	-7.84134e-121
0.574 	-7.72696e-121
0.5747 	-1.51e-120
0.5754 	-1.35187e-120
0.5761 	-3.32325e-121
0.5768 	-1.3289e-121
0.5775 	-1.30973e-121
0.5782 	-1.29056e-121
0.5789 	-1.27139e-121
0.5796 	-2.22082e-121
0.5803 	-2.4796e-121
0.581 	-7.60728e-122
0.5817 	-2.15051e-122
0.5824 	-2.11894e-122
0.5831 	-2.08738e-122
0.5838 	-2.05581e-122
0.5845 	-3.16586e-122
0.5852 	-4.42027e-122
0.5859 	-1.57705e-122
0.5866 	-3.4215e-123
0.5873 	-3.37041e-123
0.588 	-3.31932e-123
0.5887 	-3.26822e-123
0.5894 	-4.35918e-123
0.5901 	-7.67694e-123
0.5908 	-3.05996e-123
0.5915 	-5.35423e-124
0.5922 	-5.27291e-124
0.5929 	-5.19159e-124
0.5936 	-5.11027e-124
0.5943 	-5.76631e-124
0.595 	-1.30146e-123
0.5957 	-5.76253e-124
0.5964 	-8.24437e-125
0.5971 	-8.11705e-125
0.5978 	-7.98974e-125
0.5985 	-7.86242e-125
0.5992 	-7.73511e-125
0.5999 	-1.83899e-124
0.6006 	-1.04369e-124
0.6013 	-1.24959e-125
0.602 	-1.22998e-125
0.6027 	-1.21036e-125
0.6034 	-1.19074e-125
0.6041 	-1.17113e-125
0.6048 	-2.53852e-125
0.6055 	-1.81733e-125
0.6062 	-2.88567e-126
0.6069 	-1.83532e-126
0.6076 	-1.80556e-126
0.6083 	-1.77581e-126
0.609 	-1.74605e-126
0.6097 	-3.41939e-126
0.6104 	-3.0613e-126
0.6111 	-7.30955e-127
0.6118 	-2.69774e-127
0.6125 	-2.65329e-127
0.6132 	-2.60884e-127
0.6139 	-2.56439e-127
0.6146 	-4.48727e-127
0.6153 	-5.01008e-127
0.616 	-1.51564e-127
0.6167 	-3.90766e-128
0.6174 	-3.84225e-128
0.6181 	-3.77683e-128
0.6188 	-3.71141e-128
0.6195 	-5.72332e-128
0.6202 	-7.99084e-128
0.6209 	-2.83364e-128
0.6216 	-5.57967e-129
0.6223 	-5.48479e-129
0.623 	-5.38991e-129
0.6237 	-5.29503e-129
0.6244 	-7.0697e-129
0.6251 	-1.24497e-128
0.6258 	-4.95568e-129
0.6265 	-7.85624e-130
0.6272 	-7.72058e-130
0.6279 	-7.58493e-130
0.6286 	-7.44927e-130
0.6293 	-8.41103e-130
0.63 	-1.89819e-129
0.6307 	-8.40528e-130
0.6314 	-1.09111e-130
0.6321 	-1.07198e-130
0.6328 	-1.05285e-130
0.6335 	-1.03373e-130
0.6342 	-1.0146e-130
0.6349 	-2.41822e-130
0.6356 	-1.37249e-130
0.6363 	-1.49518e-131
0.637 	-1.46858e-131
0.6377 	-1.44197e-131
0.6384 	-1.41537e-131
0.6391 	-1.38877e-131
0.6398 	-3.01665e-131
0.6405 	-2.15968e-131
0.6412 	-3.25475e-132
0.6419 	-1.9856e-132
0.6426 	-1.9491e-132
0.6433 	-1.91259e-132
0.644 	-1.87609e-132
0.6447 	-3.68038e-132
0.6454 	-3.29497e-132
0.6461 	-7.69277e-133
0.6468 	-2.65019e-133
0.6475 	-2.60076e-133
0.6482 	-2.55132e-133
0.6489 	-2.50189e-133
0.6496 	-4.38371e-133
0.6503 	-4.89433e-133
0.651 	-1.46488e-133
0.6517 	-3.49258e-134
0.6524 	-3.4265e-134
0.6531 	-3.36042e-134
0.6538 	-3.29434e-134
0.6545 	-5.08488e-134
0.6552 	-7.099e-134
0.6559 	-2.50592e-134
0.6566 	-4.54553e-135
0.6573 	-4.45831e-135
0.658 	-4.37109e-135
0.6587 	-4.28388e-135
0.6594 	-5.72271e-135
0.6601 	-1.00766e-134
0.6608 	-4.00733e-135
0.6615 	-5.8434e-136
0.6622 	-5.72974e-136
0.6629 	-5.61607e-136
0.6636 	-5.5024e-136
0.6643 	-6.21369e-136
0.665 	-1.40205e-135
0.6657 	-6.20918e-136
0.6664 	-7.42111e-137
0.6671 	-7.2748e-137
0.6678 	-7.1285e-137
0.6685 	-6.98219e-137
0.6692 	-6.83589e-137
0.6699 	-1.63258e-136
0.6706 	-9.26672e-137
0.6713 	-9.31299e-138
0.672 	-9.12698e-138
0.6727 	-8.94097e-138
0.6734 	-8.75496e-138
0.6741 	-8.56895e-138
0.6748 	-1.86425e-137
0.6755 	-1.33472e-137
0.6762 	-1.92672e-138
0.6769 	-1.13188e-138
0.6776 	-1.10852e-138
0.6783 	-1.08515e-138
0.679 	-1.06179e-138
0.6797 	-2.08527e-138
0.6804 	-1.86691e-138
0.6811 	-4.28113e-139
0.6818 	-1.38838e-139
0.6825 	-1.35938e-139
0.6832 	-1.33037e-139
0.6839 	-1.30137e-139
0.6846 	-2.28168e-139
0.6853 	-2.54736e-139
0.686 	-7.56141e-140
0.6867 	-1.68623e-140
0.6874 	-1.65063e-140
0.6881 	-1.61503e-140
0.6888 	-1.57944e-140
0.6895 	-2.43832e-140
0.6902 	-3.40386e-140
0.6909 	-1.19757e-140
0.6916 	-2.03165e-141
0.6923 	-1.9884e-141
0.693 	-1.94515e-141
0.6937 	-1.9019e-141
0.6944 	-2.54002e-141
0.6951 	-4.47186e-141
0.6958 	-1.78711e-141
0.6965 	-4.16893e-142
0.6972 	-4.12237e-142
0.6979 	-4.07581e-142
0.6986 	-4.02925e-142
0.6993 	-4.59469e-142
0.7 	-1.03692e-141
