0 	1
0.0007 	1
0.0014 	1
0.0021 	1
0.0028 	1
0.0035 	1
0.0042 	1
0.0049 	1
0.0056 	1
0.0063 	1
0.007 	1
0.0077 	1
0.0084 	1
0.0091 	1
0.0098 	1
0.0105 	1
0.0112 	1
0.0119 	1
0.0126 	1
0.0133 	1
0.014 	1
0.0147 	1
0.0154 	1
0.0161 	1
0.0168 	1
0.0175 	1
0.0182 	1
0.0189 	1
0.0196 	1
0.0203 	1
0.021 	1
0.0217 	1
0.0224 	1
0.0231 	1
0.0238 	1
0.0245 	1
0.0252 	1
0.0259 	1
0.0266 	1
0.0273 	1
0.028 	1
0.0287 	1
0.0294 	1
0.0301 	1
0.0308 	1
0.0315 	1
0.0322 	1
0.0329 	1
0.0336 	1
0.0343 	1
0.035 	1
0.0357 	1
0.0364 	1
0.0371 	1
0.0378 	1
0.0385 	1
0.0392 	1
0.0399 	1
0.0406 	1
0.0413 	1
0.042 	1
0.0427 	1
0.0434 	1
0.0441 	1
0.0448 	1
0.0455 	1
0.0462 	1
0.0469 	1
0.0476 	1
0.0483 	1
0.049 	1
0.0497 	1
0.0504 	1
0.0511 	1
0.0518 	1
0.0525 	1
0.0532 	1
0.0539 	1
0.0546 	1
0.0553 	1
0.056 	1
0.0567 	1
0.0574 	1
0.0581 	1
0.0588 	1
0.0595 	1
0.0602 	1
0.0609 	1
0.0616 	1
0.0623 	1
0.063 	1
0.0637 	1
0.0644 	1
0.0651 	1
0.0658 	1
0.0665 	1
0.0672 	1
0.0679 	1
0.0686 	1
0.0693 	1
0.07 	1
0.0707 	1
0.0714 	1
0.0721 	1
0.0728 	1
0.0735 	1
0.0742 	1
0.0749 	1
0.0756 	1
0.0763 	1
0.077 	1
0.0777 	1
0.0784 	1
0.0791 	1
0.0798 	1
0.0805 	1
0.0812 	1
0.0819 	1
0.0826 	1
0.0833 	1
0.084 	1
0.0847 	1
0.0854 	1
0.0861 	1
0.0868 	1
0.0875 	1
0.0882 	1
0.0889 	1
0.0896 	1
0.0903 	1
0.091 	1
0.0917 	1
0.0924 	1
0.0931 	1
0.0938 	1
0.0945 	1
0.0952 	1
0.0959 	1
0.0966 	1
0.0973 	1
0.098 	1
0.0987 	1
0.0994 	1
0.1001 	1
0.1008 	1
0.1015 	1
0.1022 	1
0.1029 	1
0.1036 	1
0.1043 	1
0.105 	1
0.1057 	1
0.1064 	1
0.1071 	1
0.1078 	1
0.1085 	1
0.1092 	1
0.1099 	1
0.1106 	1
0.1113 	1
0.112 	1
0.1127 	1
0.1134 	1
0.1141 	1
0.1148 	1
0.1155 	1
0.1162 	1
0.1169 	1
0.1176 	1
0.1183 	1
0.119 	1
0.1197 	1
0.1204 	1
0.1211 	1
0.1218 	1
0.1225 	1
0.1232 	1
0.1239 	1
0.1246 	1
0.1253 	1
0.126 	1
0.1267 	1
0.1274 	1
0.1281 	1
0.1288 	1
0.1295 	1
0.1302 	1
0.1309 	1
0.1316 	1
0.1323 	1
0.133 	1
0.1337 	1
0.1344 	1
0.1351 	1
0.1358 	1
0.1365 	1
0.1372 	1
0.1379 	1
0.1386 	1
0.1393 	1
0.14 	1
0.1407 	1
0.1414 	1
0.1421 	1
0.1428 	1
0.1435 	1
0.1442 	1
0.1449 	1
0.1456 	1
0.1463 	1
0.147 	1
0.1477 	1
0.1484 	1
0.1491 	1
0.1498 	1
0.1505 	1
0.1512 	1
0.1519 	1
0.1526 	1
0.1533 	1
0.154 	1
0.1547 	1
0.1554 	1
0.1561 	1
0.1568 	1
0.1575 	1
0.1582 	1
0.1589 	1
0.1596 	1
0.1603 	1
0.161 	1
0.1617 	1
0.1624 	1
0.1631 	1
0.1638 	1
0.1645 	1
0.1652 	1
0.1659 	1
0.1666 	1
0.1673 	1
0.168 	1
0.1687 	1
0.1694 	1
0.1701 	1
0.1708 	1
0.1715 	1
0.1722 	1
0.1729 	1
0.1736 	1
0.1743 	1
0.175 	1
0.1757 	1
0.1764 	1
0.1771 	1
0.1778 	1
0.1785 	1
0.1792 	1
0.1799 	1
0.1806 	1
0.1813 	1
0.182 	1
0.1827 	1
0.1834 	1
0.1841 	1
0.1848 	1
0.1855 	1
0.1862 	1
0.1869 	1
0.1876 	1
0.1883 	1
0.189 	1
0.1897 	1
0.1904 	1
0.1911 	1
0.1918 	1
0.1925 	1
0.1932 	1
0.1939 	1
0.1946 	1
0.1953 	1
0.196 	1
0.1967 	1
0.1974 	1
0.1981 	1
0.1988 	1
0.1995 	1
0.2002 	1
0.2009 	1
0.2016 	1
0.2023 	1
0.203 	1
0.2037 	1
0.2044 	1
0.2051 	1
0.2058 	1
0.2065 	1
0.2072 	1
0.2079 	1
0.2086 	1
0.2093 	1
0.21 	1
0.2107 	1
0.2114 	1
0.2121 	1
0.2128 	1
0.2135 	1
0.2142 	1
0.2149 	1
0.2156 	1
0.2163 	1
0.217 	1
0.2177 	1
0.2184 	1
0.2191 	1
0.2198 	1
0.2205 	1
0.2212 	1
0.2219 	1
0.2226 	1
0.2233 	1
0.224 	1
0.2247 	1
0.2254 	1
0.2261 	1
0.2268 	1
0.2275 	1
0.2282 	0.999999
0.2289 	0.999999
0.2296 	0.999999
0.2303 	0.999999
0.231 	0.999999
0.2317 	0.999998
0.2324 	0.999996
0.2331 	0.999995
0.2338 	0.999993
0.2345 	0.999991
0.2352 	0.999989
0.2359 	0.999987
0.2366 	0.999977
0.2373 	0.999959
0.238 	0.99994
0.2387 	0.999922
0.2394 	0.999896
0.2401 	0.999871
0.2408 	0.999853
0.2415 	0.999721
0.2422 	0.999403
0.2429 	0.999086
0.2436 	0.998768
0.2443 	0.998359
0.245 	0.997921
0.2457 	0.997649
0.2464 	0.995279
0.2471 	0.986086
0.2478 	0.976892
0.2485 	0.967698
0.2492 	0.956249
0.2499 	0.943428
0.2506 	0.934286
0.2513 	0.921894
0.252 	0.871537
0.2527 	0.821179
0.2534 	0.770822
0.2541 	0.705659
0.2548 	0.624394
0.2555 	0.544655
0.2562 	0.465524
0.2569 	0.405075
0.2576 	0.345618
0.2583 	0.28616
0.259 	0.232151
0.2597 	0.188905
0.2604 	0.143767
0.2611 	0.0972112
0.2618 	0.0726386
0.2625 	0.0533303
0.2632 	0.0340219
0.2639 	0.0178409
0.2646 	0.0147234
0.2653 	0.0110233
0.266 	0.00654645
0.2667 	0.00415917
0.2674 	0.00282914
0.2681 	0.00149912
0.2688 	0.000234562
0.2695 	0.000208138
0.2702 	0.000167765
0.2709 	9.25221e-05
0.2716 	4.84005e-05
0.2723 	3.28641e-05
0.273 	1.73278e-05
0.2737 	1.79144e-06
0.2744 	3.61116e-07
0.2751 	3.46902e-07
0.2758 	1.80939e-07
0.2765 	6.96467e-08
0.2772 	4.81403e-08
0.2779 	2.66339e-08
0.2786 	5.12752e-09
0.2793 	7.17366e-11
0.28 	8.74234e-11
0.2807 	5.21144e-11
0.2814 	2.45905e-11
0.2821 	2.23156e-11
0.2828 	2.00406e-11
0.2835 	1.77657e-11
0.2842 	1.74614e-11
0.2849 	1.83575e-11
0.2856 	1.91736e-11
0.2863 	1.99231e-11
0.287 	2.0152e-11
0.2877 	2.03809e-11
0.2884 	2.06098e-11
0.2891 	2.06905e-11
0.2898 	2.06097e-11
0.2905 	2.06069e-11
0.2912 	2.06354e-11
0.2919 	2.00886e-11
0.2926 	1.95115e-11
0.2933 	1.89344e-11
0.294 	1.82485e-11
0.2947 	1.7347e-11
0.2954 	1.64949e-11
0.2961 	1.56798e-11
0.2968 	1.46017e-11
0.2975 	1.34609e-11
0.2982 	1.23201e-11
0.2989 	1.11366e-11
0.2996 	9.77419e-12
0.3003 	8.41465e-12
0.301 	7.05893e-12
0.3017 	6.01428e-12
0.3024 	5.1268e-12
0.3031 	4.23932e-12
0.3038 	3.36698e-12
0.3045 	2.78351e-12
0.3052 	2.18599e-12
0.3059 	1.55332e-12
0.3066 	1.11256e-12
0.3073 	8.47837e-13
0.308 	5.83109e-13
0.3087 	3.18381e-13
0.3094 	2.47299e-13
0.3101 	1.93423e-13
0.3108 	1.23467e-13
0.3115 	7.2049e-14
0.3122 	5.10364e-14
0.3129 	3.00237e-14
0.3136 	9.011e-15
0.3143 	3.70806e-15
0.315 	3.25851e-15
0.3157 	1.95356e-15
0.3164 	8.94424e-16
0.3171 	6.31228e-16
0.3178 	3.68032e-16
0.3185 	1.04836e-16
0.3192 	5.34034e-18
0.3199 	5.71324e-18
0.3206 	3.50784e-18
0.3213 	1.08939e-18
0.322 	7.80162e-19
0.3227 	4.70938e-19
0.3234 	1.61713e-19
0.3241 	4.58483e-22
0.3248 	6.54724e-22
0.3255 	4.54188e-22
0.3262 	9.49416e-23
0.3269 	5.6833e-23
0.3276 	3.55082e-23
0.3283 	1.41835e-23
0.329 	1.19131e-26
0.3297 	1.77726e-26
0.3304 	1.4399e-26
0.3311 	4.1005e-27
0.3318 	1.64485e-27
0.3325 	1.05907e-27
0.3332 	4.73298e-28
0.3339 	3.109e-31
0.3346 	4.685e-31
0.3353 	4.3741e-31
0.336 	1.54732e-31
0.3367 	4.89107e-32
0.3374 	3.23356e-32
0.3381 	1.57604e-32
0.3388 	8.38588e-36
0.3395 	1.24113e-35
0.3402 	1.30935e-35
0.3409 	5.4177e-36
0.3416 	1.49465e-36
0.3423 	1.01152e-36
0.343 	5.2839e-37
0.3437 	4.5258e-38
0.3444 	3.31283e-40
0.3451 	3.91629e-40
0.3458 	1.8099e-40
0.3465 	4.48981e-41
0.3472 	3.10256e-41
0.3479 	1.71531e-41
0.3486 	3.28059e-42
0.3493 	8.73257e-45
0.35 	1.16492e-44
0.3507 	5.82948e-45
0.3514 	1.29272e-45
0.3521 	9.10176e-46
0.3528 	5.27634e-46
0.3535 	1.45091e-46
0.3542 	2.24913e-49
0.3549 	3.06324e-49
0.3556 	1.81514e-49
0.3563 	3.61903e-50
0.357 	2.59151e-50
0.3577 	1.56399e-50
0.3584 	5.36463e-51
0.3591 	5.83805e-54
0.3598 	8.01914e-54
0.3605 	5.56071e-54
0.3612 	1.24646e-54
0.3619 	7.60284e-55
0.3626 	4.74994e-55
0.3633 	1.89705e-55
0.364 	1.72266e-58
0.3647 	2.26741e-58
0.3654 	1.80074e-58
0.3661 	5.75498e-59
0.3668 	2.6352e-59
0.3675 	1.69671e-59
0.3682 	7.58223e-60
0.3689 	7.07915e-63
0.3696 	8.3034e-63
0.3703 	7.19449e-63
0.371 	2.9747e-63
0.3717 	1.27165e-63
0.3724 	8.40716e-64
0.3731 	4.09783e-64
0.3738 	4.18001e-67
0.3745 	4.4017e-67
0.3752 	3.9784e-67
0.3759 	1.94262e-67
0.3766 	8.28444e-68
0.3773 	5.60667e-68
0.378 	2.92891e-68
0.3787 	2.51138e-69
0.3794 	2.91888e-71
0.3801 	2.75353e-71
0.3808 	1.47268e-71
0.3815 	6.05594e-72
0.3822 	4.18481e-72
0.3829 	2.31369e-72
0.3836 	4.42559e-73
0.3843 	2.00877e-75
0.385 	1.99318e-75
0.3857 	1.1299e-75
0.3864 	4.38542e-76
0.3871 	3.08457e-76
0.3878 	1.78372e-76
0.3885 	4.82868e-77
0.3892 	-2.86744e-77
0.3899 	-7.3329e-77
0.3906 	-4.14917e-77
0.3913 	-1.80985e-78
0.392 	-1.86633e-78
0.3927 	-1.92282e-78
0.3934 	-1.9793e-78
0.3941 	-4.12787e-77
0.3948 	-1.2324e-76
0.3955 	-8.81378e-77
0.3962 	-6.2101e-78
0.3969 	-2.54913e-78
0.3976 	-2.58961e-78
0.3983 	-2.63008e-78
0.399 	-3.75108e-77
0.3997 	-1.41109e-76
0.4004 	-1.2632e-76
0.4011 	-2.2742e-77
0.4018 	-2.76198e-78
0.4025 	-2.77804e-78
0.4032 	-2.79411e-78
0.4039 	-2.35057e-77
0.4046 	-1.30335e-76
0.4053 	-1.45598e-76
0.406 	-3.87736e-77
0.4067 	-2.56128e-78
0.4074 	-2.55443e-78
0.4081 	-2.54757e-78
0.4088 	-7.40049e-78
0.4095 	-1.02519e-76
0.4102 	-1.43282e-76
0.4109 	-4.8156e-77
0.4116 	-2.1026e-78
0.4123 	-2.08064e-78
0.413 	-2.05868e-78
0.4137 	-2.03671e-78
0.4144 	-7.02932e-77
0.4151 	-1.23961e-76
0.4158 	-4.88089e-77
0.4165 	-1.55841e-78
0.4172 	-1.53047e-78
0.4179 	-1.50252e-78
0.4186 	-1.47458e-78
0.4193 	-4.2453e-77
0.42 	-9.59721e-77
0.4207 	-4.24374e-77
0.4214 	-1.05682e-78
0.4221 	-1.03001e-78
0.4228 	-1.00319e-78
0.4235 	-9.76375e-79
0.4242 	-2.26261e-77
0.4249 	-5.73832e-77
0.4256 	-3.25449e-77
0.4263 	-6.62171e-79
0.427 	-6.40388e-79
0.4277 	-6.18604e-79
0.4284 	-5.96821e-79
0.4291 	-1.05596e-77
0.4298 	-3.13142e-77
0.4305 	-2.24119e-77
0.4312 	-1.6469e-78
0.4319 	-3.70606e-79
0.4326 	-3.54944e-79
0.4333 	-3.39282e-79
0.434 	-4.20637e-78
0.4347 	-1.56789e-77
0.4354 	-1.40359e-77
0.4361 	-2.55639e-78
0.4368 	-2.00847e-79
0.4375 	-1.90656e-79
0.4382 	-1.80465e-79
0.4389 	-1.32587e-78
0.4396 	-7.22972e-78
0.4403 	-8.07127e-78
0.441 	-2.1631e-78
0.4417 	-1.02425e-79
0.4424 	-9.63462e-80
0.4431 	-9.02677e-80
0.4438 	-2.34686e-79
0.4445 	-3.07701e-78
0.4452 	-4.29445e-78
0.4459 	-1.44968e-78
0.4466 	-4.93438e-80
0.4473 	-4.59921e-80
0.448 	-4.26403e-80
0.4487 	-3.92886e-80
0.4494 	-1.2094e-78
0.4501 	-2.12761e-78
0.4508 	-8.40573e-79
0.4515 	-2.2528e-80
0.4522 	-2.08093e-80
0.4529 	-1.90906e-80
0.4536 	-1.73719e-80
0.4543 	-4.3819e-79
0.455 	-9.86829e-79
0.4557 	-4.37566e-79
0.4564 	-9.77235e-81
0.4571 	-8.94898e-81
0.4578 	-8.12561e-81
0.4585 	-7.30225e-81
0.4592 	-1.45551e-79
0.4599 	-3.67162e-79
0.4606 	-2.08624e-79
0.4613 	-4.03657e-81
0.462 	-3.66657e-81
0.4627 	-3.29658e-81
0.4634 	-2.92658e-81
0.4641 	-4.37721e-80
0.4648 	-1.28783e-79
0.4655 	-9.22626e-80
0.4662 	-7.1289e-81
0.4669 	-1.43418e-81
0.4676 	-1.27768e-81
0.4683 	-1.12117e-81
0.469 	-1.1586e-80
0.4697 	-4.26478e-80
0.4704 	-3.81821e-80
0.4711 	-7.07085e-81
0.4718 	-5.36536e-82
0.4725 	-4.74011e-82
0.4732 	-4.11485e-82
0.4739 	-2.50483e-81
0.4746 	-1.33444e-80
0.4753 	-1.48848e-80
0.476 	-4.02627e-81
0.4767 	-1.92297e-82
0.4774 	-1.68632e-82
0.4781 	-1.44966e-82
0.4788 	-3.22815e-82
0.4795 	-3.9444e-81
0.4802 	-5.49455e-81
0.4809 	-1.86608e-81
0.4816 	-6.61324e-83
0.4823 	-5.76211e-83
0.483 	-4.91099e-83
0.4837 	-4.05987e-83
0.4844 	-1.09972e-81
0.4851 	-1.92872e-81
0.4858 	-7.65263e-82
0.4865 	-2.18571e-83
0.4872 	-1.89401e-83
0.4879 	-1.60231e-83
0.4886 	-1.31061e-83
0.4893 	-2.88163e-82
0.49 	-6.46071e-82
0.4907 	-2.87378e-82
0.4914 	-6.95285e-84
0.4921 	-5.99761e-84
0.4928 	-5.04238e-84
0.4935 	-4.08714e-84
0.4942 	-7.0466e-83
0.4949 	-1.76738e-82
0.4956 	-1.00617e-82
0.4963 	-2.13187e-84
0.497 	-1.83222e-84
0.4977 	-1.53257e-84
0.4984 	-1.23292e-84
0.4991 	-1.58608e-83
0.4998 	-4.63058e-83
0.5005 	-3.32043e-83
0.5012 	-2.68428e-84
0.5019 	-5.40721e-85
0.5026 	-4.50463e-85
0.5033 	-3.60205e-85
0.504 	-3.19254e-84
0.5047 	-1.16198e-83
0.5054 	-1.04034e-83
0.5061 	-1.95426e-84
0.5068 	-1.54359e-85
0.5075 	-1.28197e-85
0.5082 	-1.02034e-85
0.5089 	-5.34138e-85
0.5096 	-2.79096e-84
0.5103 	-3.11073e-84
0.511 	-8.47764e-85
0.5117 	-4.26776e-86
0.5124 	-3.5365e-86
0.5131 	-2.80524e-86
0.5138 	-5.53214e-86
0.5145 	-6.4072e-85
0.5152 	-8.91129e-85
0.5159 	-3.04065e-85
0.5166 	-1.14418e-86
0.5173 	-9.4672e-87
0.518 	-7.49261e-87
0.5187 	-5.51801e-87
0.5194 	-1.40212e-85
0.5201 	-2.45315e-85
0.5208 	-9.76465e-86
0.5215 	-2.97785e-87
0.5222 	-2.46188e-87
0.5229 	-1.94591e-87
0.5236 	-1.42994e-87
0.5243 	-2.91147e-86
0.525 	-6.50527e-86
0.5257 	-2.90038e-86
0.5264 	-7.53146e-88
0.5271 	-6.22478e-88
0.5278 	-4.91809e-88
0.5285 	-3.61141e-88
0.5292 	-5.69155e-87
0.5299 	-1.42122e-86
0.5306 	-8.1026e-87
0.5313 	-1.85288e-88
0.532 	-1.53173e-88
0.5327 	-1.21058e-88
0.5334 	-8.89433e-89
0.5341 	-1.03261e-87
0.5348 	-2.99641e-87
0.5355 	-2.15011e-87
0.5362 	-1.79777e-88
0.5369 	-3.67112e-89
0.5376 	-2.90419e-89
0.5383 	-2.13725e-89
0.539 	-1.6894e-88
0.5397 	-6.09225e-88
0.5404 	-5.45458e-88
0.5411 	-1.03652e-88
0.5418 	-8.57639e-90
0.5425 	-6.79482e-90
0.5432 	-5.01326e-90
0.5439 	-2.32177e-89
0.5446 	-1.19306e-88
0.5453 	-1.32885e-88
0.546 	-3.64525e-89
0.5467 	-1.95435e-90
0.5474 	-1.55139e-90
0.5481 	-1.14844e-90
0.5488 	-2.03434e-90
0.5495 	-2.246e-89
0.5502 	-3.11921e-89
0.5509 	-1.06905e-89
0.5516 	-4.34677e-91
0.5523 	-3.45861e-91
0.553 	-2.57044e-91
0.5537 	-1.68227e-91
0.5544 	-4.05225e-90
0.5551 	-7.07247e-90
0.5558 	-2.82454e-90
0.5565 	-9.44184e-92
0.5572 	-7.5326e-92
0.5579 	-5.62335e-92
0.5586 	-3.71411e-92
0.5593 	-6.97311e-91
0.56 	-1.55217e-90
0.5607 	-6.93879e-91
0.5614 	-2.00403e-92
0.5621 	-1.60348e-92
0.5628 	-1.20292e-92
0.5635 	-8.02367e-93
0.5642 	-1.13539e-91
0.5649 	-2.82031e-91
0.5656 	-1.61077e-91
0.5663 	-4.15843e-93
0.567 	-3.33773e-93
0.5677 	-2.51704e-93
0.5684 	-1.69635e-93
0.5691 	-1.72489e-92
0.5698 	-4.96663e-92
0.5705 	-3.56725e-92
0.5712 	-3.11424e-93
0.5719 	-6.79664e-94
0.5726 	-5.15352e-94
0.5733 	-3.5104e-94
0.574 	-2.37803e-93
0.5747 	-8.46932e-93
0.5754 	-7.58337e-93
0.5761 	-1.46451e-93
0.5768 	-1.35445e-94
0.5775 	-1.03281e-94
0.5782 	-7.11167e-95
0.5789 	-2.78243e-94
0.5796 	-1.39659e-93
0.5803 	-1.5541e-93
0.581 	-4.30465e-94
0.5817 	-2.64252e-95
0.5824 	-2.02663e-95
0.5831 	-1.41073e-95
0.5838 	-2.15356e-95
0.5845 	-2.22254e-94
0.5852 	-3.07994e-94
0.5859 	-1.06286e-94
0.5866 	-5.04915e-96
0.5873 	-3.89493e-96
0.588 	-2.74072e-96
0.5887 	-1.58651e-96
0.5894 	-3.40299e-95
0.5901 	-5.91694e-95
0.5908 	-2.37563e-95
0.5915 	-9.45164e-97
0.5922 	-7.33375e-97
0.5929 	-5.21585e-97
0.5936 	-3.09795e-97
0.5943 	-4.9894e-96
0.595 	-1.10401e-95
0.5957 	-4.95681e-96
0.5964 	-1.73392e-97
0.5971 	-1.35325e-97
0.5978 	-9.72577e-98
0.5985 	-5.91905e-98
0.5992 	-6.95161e-97
0.5999 	-1.71233e-96
0.6006 	-9.80863e-97
0.6013 	-3.11832e-98
0.602 	-2.44782e-98
0.6027 	-1.77731e-98
0.6034 	-1.10681e-98
0.6041 	-9.08203e-98
0.6048 	-2.58269e-97
0.6055 	-1.85798e-97
0.6062 	-1.73586e-98
0.6069 	-4.34161e-99
0.6076 	-3.18384e-99
0.6083 	-2.02606e-99
0.609 	-1.08416e-98
0.6097 	-3.78469e-98
0.6104 	-3.38932e-98
0.6111 	-6.72028e-99
0.6118 	-7.55289e-100
0.6125 	-5.59232e-100
0.6132 	-3.63175e-100
0.6139 	-1.11273e-99
0.6146 	-5.38118e-99
0.6153 	-5.97903e-99
0.616 	-1.68276e-99
0.6167 	-1.2891e-100
0.6174 	-9.63384e-101
0.6181 	-6.37673e-101
0.6188 	-7.94216e-101
0.6195 	-7.40903e-100
0.6202 	-1.0231e-99
0.6209 	-3.57084e-100
0.6216 	-2.15915e-101
0.6223 	-1.62812e-101
0.623 	-1.09708e-101
0.6237 	-5.66048e-102
0.6244 	-9.84949e-101
0.6251 	-1.7021e-100
0.6258 	-6.89387e-101
0.6265 	-3.54995e-102
0.6272 	-2.7e-102
0.6279 	-1.85004e-102
0.6286 	-1.00009e-102
0.6293 	-1.25862e-101
0.63 	-2.75821e-101
0.6307 	-1.24723e-101
0.6314 	-5.73085e-103
0.6321 	-4.3949e-103
0.6328 	-3.05894e-103
0.6335 	-1.72298e-103
0.6342 	-1.53501e-102
0.6349 	-3.73039e-102
0.6356 	-2.14719e-102
0.6363 	-9.08629e-104
0.637 	-7.02354e-104
0.6377 	-4.96118e-104
0.6384 	-2.90064e-104
0.6391 	-1.76507e-103
0.6398 	-4.92108e-103
0.6405 	-3.54946e-103
0.6412 	-3.66787e-104
0.6419 	-1.10423e-104
0.6426 	-7.91578e-105
0.6433 	-4.78924e-105
0.644 	-1.86979e-104
0.6447 	-6.32653e-104
0.6454 	-5.66715e-104
0.6461 	-1.17067e-104
0.6468 	-1.70505e-105
0.6475 	-1.23876e-105
0.6482 	-7.72473e-106
0.6489 	-1.73179e-105
0.6496 	-7.91626e-105
0.6503 	-8.77479e-105
0.651 	-2.53208e-105
0.6517 	-2.58595e-106
0.6524 	-1.90223e-106
0.6531 	-1.21851e-106
0.6538 	-1.18714e-106
0.6545 	-9.62339e-106
0.6552 	-1.32149e-105
0.6559 	-4.69474e-106
0.6566 	-3.85343e-107
0.6573 	-2.86749e-107
0.658 	-1.88155e-107
0.6587 	-8.95609e-108
0.6594 	-1.13351e-106
0.6601 	-1.94013e-106
0.6608 	-7.96573e-107
0.6615 	-5.6436e-108
0.6622 	-4.24501e-108
0.6629 	-2.84643e-108
0.6636 	-1.44784e-108
0.6643 	-1.2884e-107
0.665 	-2.78167e-107
0.6657 	-1.27178e-107
0.6664 	-8.12597e-109
0.6671 	-6.17386e-109
0.6678 	-4.22176e-109
0.6685 	-2.26965e-109
0.6692 	-1.40424e-108
0.6699 	-3.34326e-108
0.6706 	-1.93869e-108
0.6713 	-1.15062e-109
0.672 	-8.82451e-110
0.6727 	-6.14285e-110
0.6734 	-3.46119e-110
0.6741 	-1.45203e-109
0.6748 	-3.93051e-109
0.6755 	-2.84626e-109
0.6762 	-3.36915e-110
0.6769 	-1.24001e-110
0.6776 	-8.77359e-111
0.6783 	-5.14704e-111
0.679 	-1.39683e-110
0.6797 	-4.5164e-110
0.6804 	-4.04726e-110
0.6811 	-8.86588e-111
0.6818 	-1.71358e-111
0.6825 	-1.23067e-111
0.6832 	-7.47746e-112
0.6839 	-1.19874e-111
0.6846 	-5.06642e-111
0.6853 	-5.59584e-111
0.686 	-1.67424e-111
0.6867 	-2.3295e-112
0.6874 	-1.69615e-112
0.6881 	-1.0628e-112
0.6888 	-8.14487e-113
0.6895 	-5.53948e-112
0.6902 	-7.54456e-112
0.6909 	-2.74988e-112
0.6916 	-3.11627e-113
0.6923 	-2.29798e-113
0.693 	-1.47969e-113
0.6937 	-6.61402e-114
0.6944 	-5.88949e-113
0.6951 	-9.94096e-113
0.6958 	-4.16237e-113
0.6965 	-4.14519e-114
0.6972 	-3.21973e-114
0.6979 	-2.29427e-114
0.6986 	-1.36882e-114
0.6993 	-1.07545e-113
0.7 	-2.29477e-113
