0 	1
0.0007 	1
0.0014 	1
0.0021 	1
0.0028 	1
0.0035 	1
0.0042 	1
0.0049 	1
0.0056 	1
0.0063 	1
0.007 	1
0.0077 	1
0.0084 	1
0.0091 	1
0.0098 	1
0.0105 	1
0.0112 	1
0.0119 	1
0.0126 	1
0.0133 	1
0.014 	1
0.0147 	1
0.0154 	1
0.0161 	1
0.0168 	1
0.0175 	1
0.0182 	1
0.0189 	1
0.0196 	1
0.0203 	1
0.021 	1
0.0217 	1
0.0224 	1
0.0231 	1
0.0238 	1
0.0245 	1
0.0252 	1
0.0259 	1
0.0266 	1
0.0273 	1
0.028 	1
0.0287 	1
0.0294 	1
0.0301 	1
0.0308 	1
0.0315 	1
0.0322 	1
0.0329 	1
0.0336 	1
0.0343 	1
0.035 	1
0.0357 	1
0.0364 	1
0.0371 	1
0.0378 	1
0.0385 	1
0.0392 	1
0.0399 	1
0.0406 	1
0.0413 	1
0.042 	1
0.0427 	1
0.0434 	1
0.0441 	1
0.0448 	1
0.0455 	1
0.0462 	1
0.0469 	1
0.0476 	1
0.0483 	1
0.049 	1
0.0497 	1
0.0504 	1
0.0511 	1
0.0518 	1
0.0525 	1
0.0532 	1
0.0539 	1
0.0546 	1
0.0553 	1
0.056 	1
0.0567 	1
0.0574 	1
0.0581 	1
0.0588 	1
0.0595 	1
0.0602 	1
0.0609 	1
0.0616 	1
0.0623 	1
0.063 	1
0.0637 	1
0.0644 	1
0.0651 	1
0.0658 	1
0.0665 	1
0.0672 	1
0.0679 	1
0.0686 	1
0.0693 	1
0.07 	1
0.0707 	1
0.0714 	1
0.0721 	1
0.0728 	1
0.0735 	1
0.0742 	1
0.0749 	1
0.0756 	1
0.0763 	1
0.077 	1
0.0777 	1
0.0784 	1
0.0791 	1
0.0798 	1
0.0805 	1
0.0812 	1
0.0819 	1
0.0826 	1
0.0833 	1
0.084 	1
0.0847 	1
0.0854 	1
0.0861 	1
0.0868 	1
0.0875 	1
0.0882 	1
0.0889 	1
0.0896 	1
0.0903 	1
0.091 	1
0.0917 	1
0.0924 	1
0.0931 	1
0.0938 	1
0.0945 	1
0.0952 	1
0.0959 	1
0.0966 	1
0.0973 	1
0.098 	1
0.0987 	1
0.0994 	1
0.1001 	1
0.1008 	1
0.1015 	1
0.1022 	1
0.1029 	1
0.1036 	1
0.1043 	1
0.105 	1
0.1057 	1
0.1064 	1
0.1071 	1
0.1078 	1
0.1085 	1
0.1092 	1
0.1099 	1
0.1106 	1
0.1113 	1
0.112 	1
0.1127 	1
0.1134 	1
0.1141 	1
0.1148 	1
0.1155 	1
0.1162 	1
0.1169 	1
0.1176 	1
0.1183 	1
0.119 	1
0.1197 	1
0.1204 	1
0.1211 	1
0.1218 	1
0.1225 	1
0.1232 	1
0.1239 	1
0.1246 	1
0.1253 	1
0.126 	1
0.1267 	1
0.1274 	1
0.1281 	1
0.1288 	1
0.1295 	1
0.1302 	1
0.1309 	1
0.1316 	1
0.1323 	1
0.133 	1
0.1337 	1
0.1344 	1
0.1351 	1
0.1358 	1
0.1365 	1
0.1372 	1
0.1379 	1
0.1386 	1
0.1393 	1
0.14 	1
0.1407 	1
0.1414 	1
0.1421 	1
0.1428 	1
0.1435 	1
0.1442 	1
0.1449 	1
0.1456 	1
0.1463 	1
0.147 	1
0.1477 	1
0.1484 	1
0.1491 	1
0.1498 	1
0.1505 	1
0.1512 	1
0.1519 	1
0.1526 	1
0.1533 	1
0.154 	1
0.1547 	1
0.1554 	1
0.1561 	1
0.1568 	1
0.1575 	1
0.1582 	1
0.1589 	1
0.1596 	1
0.1603 	1
0.161 	1
0.1617 	1
0.1624 	1
0.1631 	1
0.1638 	1
0.1645 	1
0.1652 	1
0.1659 	1
0.1666 	1
0.1673 	1
0.168 	1
0.1687 	1
0.1694 	1
0.1701 	1
0.1708 	1
0.1715 	1
0.1722 	1
0.1729 	1
0.1736 	1
0.1743 	1
0.175 	1
0.1757 	1
0.1764 	1
0.1771 	1
0.1778 	1
0.1785 	1
0.1792 	1
0.1799 	1
0.1806 	1
0.1813 	1
0.182 	1
0.1827 	1
0.1834 	1
0.1841 	1
0.1848 	1
0.1855 	1
0.1862 	1
0.1869 	1
0.1876 	1
0.1883 	1
0.189 	1
0.1897 	1
0.1904 	1
0.1911 	1
0.1918 	1
0.1925 	1
0.1932 	1
0.1939 	1
0.1946 	1
0.1953 	1
0.196 	1
0.1967 	1
0.1974 	1
0.1981 	1
0.1988 	1
0.1995 	1
0.2002 	1
0.2009 	1
0.2016 	1
0.2023 	1
0.203 	1
0.2037 	1
0.2044 	1
0.2051 	1
0.2058 	1
0.2065 	1
0.2072 	1
0.2079 	1
0.2086 	1
0.2093 	1
0.21 	1
0.2107 	1
0.2114 	0.999995
0.2121 	0.999973
0.2128 	0.999952
0.2135 	0.999926
0.2142 	0.999882
0.2149 	0.999831
0.2156 	0.999784
0.2163 	0.999618
0.217 	0.997895
0.2177 	0.996171
0.2184 	0.994304
0.2191 	0.991349
0.2198 	0.987561
0.2205 	0.983909
0.2212 	0.980311
0.2219 	0.958851
0.2226 	0.936017
0.2233 	0.912616
0.224 	0.880351
0.2247 	0.835762
0.2254 	0.79177
0.2261 	0.748225
0.2268 	0.690335
0.2275 	0.628532
0.2282 	0.566676
0.2289 	0.500267
0.2296 	0.419531
0.2303 	0.339214
0.231 	0.259456
0.2317 	0.200807
0.2324 	0.153886
0.2331 	0.106964
0.2338 	0.0647694
0.2345 	0.0531761
0.2352 	0.0416178
0.2359 	0.0301471
0.2366 	0.0211804
0.2373 	0.0147179
0.238 	0.0082553
0.2387 	0.00265697
0.2394 	0.00190976
0.2401 	0.00151824
0.2408 	0.00112838
0.2415 	0.000798577
0.2422 	0.000576877
0.2429 	0.000355177
0.2436 	0.000156123
0.2443 	0.000100708
0.245 	8.10927e-05
0.2457 	6.14624e-05
0.2464 	4.36935e-05
0.2471 	3.27505e-05
0.2478 	2.18074e-05
0.2485 	1.1365e-05
0.2492 	6.96832e-06
0.2499 	5.65619e-06
0.2506 	4.35732e-06
0.2513 	3.10364e-06
0.252 	2.40891e-06
0.2527 	1.71418e-06
0.2534 	1.01246e-06
0.2541 	5.97691e-07
0.2548 	4.8226e-07
0.2555 	3.72332e-07
0.2562 	2.64606e-07
0.2569 	2.03625e-07
0.2576 	1.46242e-07
0.2583 	8.8459e-08
0.259 	4.71223e-08
0.2597 	3.79719e-08
0.2604 	2.93118e-08
0.2611 	2.10194e-08
0.2618 	1.55468e-08
0.2625 	1.08432e-08
0.2632 	6.18587e-09
0.2639 	2.87242e-09
0.2646 	2.36133e-09
0.2653 	1.85567e-09
0.266 	1.35724e-09
0.2667 	9.82615e-10
0.2674 	6.76777e-10
0.2681 	3.70938e-10
0.2688 	1.62266e-10
0.2695 	1.37405e-10
0.2702 	1.12056e-10
0.2709 	8.54875e-11
0.2716 	6.33253e-11
0.2723 	4.55695e-11
0.273 	2.78137e-11
0.2737 	1.59591e-11
0.2744 	1.38247e-11
0.2751 	1.22312e-11
0.2758 	1.01316e-11
0.2765 	8.22521e-12
0.2772 	6.66661e-12
0.2779 	5.10801e-12
0.2786 	4.02488e-12
0.2793 	3.62735e-12
0.28 	3.34521e-12
0.2807 	2.94963e-12
0.2814 	2.57202e-12
0.2821 	2.26034e-12
0.2828 	1.94866e-12
0.2835 	1.68175e-12
0.2842 	1.51296e-12
0.2849 	1.37392e-12
0.2856 	1.22104e-12
0.2863 	1.06851e-12
0.287 	9.50535e-13
0.2877 	8.32557e-13
0.2884 	7.18373e-13
0.2891 	6.29384e-13
0.2898 	5.58783e-13
0.2905 	4.84441e-13
0.2912 	4.08602e-13
0.2919 	3.52978e-13
0.2926 	2.98909e-13
0.2933 	2.46427e-13
0.294 	2.07434e-13
0.2947 	1.82263e-13
0.2954 	1.55223e-13
0.2961 	1.26781e-13
0.2968 	1.05182e-13
0.2975 	8.54496e-14
0.2982 	6.60614e-14
0.2989 	5.29893e-14
0.2996 	4.66663e-14
0.3003 	3.97696e-14
0.301 	3.2108e-14
0.3017 	2.59544e-14
0.3024 	2.06387e-14
0.3031 	1.5323e-14
0.3038 	1.17875e-14
0.3045 	1.05205e-14
0.3052 	9.11511e-15
0.3059 	7.36372e-15
0.3066 	5.86742e-15
0.3073 	4.62623e-15
0.308 	3.38504e-15
0.3087 	2.54955e-15
0.3094 	2.29015e-15
0.3101 	2.04276e-15
0.3108 	1.65286e-15
0.3115 	1.29989e-15
0.3122 	1.01343e-15
0.3129 	7.26961e-16
0.3136 	5.35814e-16
0.3143 	4.77368e-16
0.315 	4.406e-16
0.3157 	3.55564e-16
0.3164 	2.74953e-16
0.3171 	2.10568e-16
0.3178 	1.46184e-16
0.3185 	1.01389e-16
0.3192 	8.92341e-17
0.3199 	8.42658e-17
0.3206 	6.92733e-17
0.3213 	5.28709e-17
0.322 	3.98602e-17
0.3227 	2.68494e-17
0.3234 	1.70032e-17
0.3241 	1.46703e-17
0.3248 	1.41087e-17
0.3255 	1.18895e-17
0.3262 	9.00708e-18
0.3269 	6.65958e-18
0.3276 	4.35324e-18
0.3283 	2.40756e-18
0.329 	2.00055e-18
0.3297 	1.95128e-18
0.3304 	1.69374e-18
0.3311 	1.28001e-18
0.3318 	9.2676e-19
0.3325 	5.90011e-19
0.3332 	2.71193e-19
0.3339 	2.10746e-19
0.3346 	2.08546e-19
0.3353 	1.8766e-19
0.336 	1.41861e-19
0.3367 	1.01172e-19
0.3374 	6.33213e-20
0.3381 	2.54706e-20
0.3388 	1.6234e-20
0.3395 	1.63377e-20
0.3402 	1.53524e-20
0.3409 	1.16446e-20
0.3416 	8.23442e-21
0.3423 	5.12193e-21
0.343 	2.00944e-21
0.3437 	9.03476e-22
0.3444 	8.84565e-22
0.3451 	8.73799e-22
0.3458 	6.67801e-22
0.3465 	4.72731e-22
0.3472 	2.97333e-22
0.3479 	1.21934e-22
0.3486 	4.03426e-23
0.3493 	3.46688e-23
0.35 	3.5257e-23
0.3507 	2.75121e-23
0.3514 	2.00259e-23
0.3521 	1.34886e-23
0.3528 	6.95129e-24
0.3535 	2.96753e-24
0.3542 	2.32833e-24
0.3549 	2.10538e-24
0.3556 	1.75463e-24
0.3563 	1.38862e-24
0.357 	1.10111e-24
0.3577 	8.13597e-25
0.3584 	5.73671e-25
0.3591 	4.63276e-25
0.3598 	3.95091e-25
0.3605 	3.25515e-25
0.3612 	2.55382e-25
0.3619 	2.03134e-25
0.3626 	1.52261e-25
0.3633 	1.05736e-25
0.364 	8.25337e-26
0.3647 	7.17927e-26
0.3654 	5.93931e-26
0.3661 	4.57494e-26
0.3668 	3.47931e-26
0.3675 	2.45698e-26
0.3682 	1.47049e-26
0.3689 	1.06242e-26
0.3696 	9.24333e-27
0.3703 	7.69e-27
0.371 	5.90676e-27
0.3717 	4.41794e-27
0.3724 	3.09271e-27
0.3731 	1.76748e-27
0.3738 	1.13742e-27
0.3745 	9.8961e-28
0.3752 	8.2822e-28
0.3759 	6.32881e-28
0.3766 	4.63178e-28
0.3773 	3.19113e-28
0.378 	1.75048e-28
0.3787 	9.46252e-29
0.3794 	7.99854e-29
0.3801 	6.82828e-29
0.3808 	5.21378e-29
0.3815 	3.74701e-29
0.3822 	2.54616e-29
0.3829 	1.3453e-29
0.3836 	6.07399e-30
0.3843 	4.60222e-30
0.385 	4.02082e-30
0.3857 	3.07567e-30
0.3864 	2.18098e-30
0.3871 	1.47136e-30
0.3878 	7.61745e-31
0.3885 	2.76156e-31
0.3892 	1.72793e-31
0.3899 	1.53997e-31
0.3906 	1.20286e-31
0.3913 	8.46959e-32
0.392 	5.69879e-32
0.3927 	2.928e-32
0.3934 	8.17807e-33
0.3941 	3.60677e-33
0.3948 	3.30881e-33
0.3955 	2.66996e-33
0.3962 	1.89475e-33
0.3969 	1.27152e-33
0.3976 	6.59984e-34
0.3983 	1.40531e-34
0.399 	3.28636e-35
0.3997 	3.14542e-35
0.4004 	2.66399e-35
0.4011 	1.9272e-35
0.4018 	1.29341e-35
0.4025 	6.87706e-36
0.4032 	1.12161e-36
0.4039 	7.70014e-38
0.4046 	7.78426e-38
0.4053 	7.03428e-38
0.406 	5.17216e-38
0.4067 	3.50757e-38
0.4074 	1.95274e-38
0.4081 	3.97904e-39
0.4088 	1.33406e-40
0.4095 	1.78449e-40
0.4102 	1.91908e-40
0.4109 	1.26402e-40
0.4116 	8.82771e-41
0.4123 	7.7533e-41
0.413 	6.67889e-41
0.4137 	3.33999e-41
0.4144 	4.44765e-41
0.4151 	5.45874e-41
0.4158 	3.53941e-41
0.4165 	2.27881e-41
0.4172 	2.204e-41
0.4179 	2.12919e-41
0.4186 	1.1201e-41
0.4193 	1.02294e-41
0.42 	1.32144e-41
0.4207 	8.79894e-42
0.4214 	5.27835e-42
0.4221 	5.03932e-42
0.4228 	4.80028e-42
0.4235 	2.93452e-42
0.4242 	2.07104e-42
0.4249 	2.70125e-42
0.4256 	1.9893e-42
0.4263 	1.11674e-42
0.427 	1.06443e-42
0.4277 	1.01212e-42
0.4284 	7.05051e-43
0.4291 	3.62597e-43
0.4298 	4.62492e-43
0.4305 	3.72949e-43
0.4312 	2.07632e-43
0.4319 	1.85909e-43
0.4326 	1.75234e-43
0.4333 	1.37563e-43
0.434 	5.02678e-44
0.4347 	6.25717e-44
0.4354 	5.47636e-44
0.4361 	3.18714e-44
0.4368 	2.56518e-44
0.4375 	2.39795e-44
0.4382 	2.11751e-44
0.4389 	5.61817e-45
0.4396 	6.77127e-45
0.4403 	6.35415e-45
0.441 	3.84342e-45
0.4417 	2.81173e-45
0.4424 	2.60177e-45
0.4431 	2.39182e-45
0.4438 	4.90158e-46
0.4445 	5.65336e-46
0.4452 	5.59258e-46
0.4459 	3.50036e-46
0.4466 	2.35266e-46
0.4473 	2.14951e-46
0.448 	1.94637e-46
0.4487 	4.53712e-47
0.4494 	3.46826e-47
0.4501 	3.53354e-47
0.4508 	2.28185e-47
0.4515 	1.42558e-47
0.4522 	1.2811e-47
0.4529 	1.13663e-47
0.4536 	3.82035e-48
0.4543 	1.45729e-48
0.455 	1.47716e-48
0.4557 	9.82888e-49
0.4564 	5.79419e-49
0.4571 	5.08914e-49
0.4578 	4.38409e-49
0.4585 	1.9262e-49
0.4592 	3.75094e-50
0.4599 	3.46702e-50
0.4606 	2.46197e-50
0.4613 	1.40196e-50
0.462 	1.19028e-50
0.4627 	9.78599e-51
0.4634 	5.18465e-51
0.4641 	4.88333e-52
0.4648 	4.04009e-52
0.4655 	2.94258e-52
0.4662 	1.74338e-52
0.4669 	1.36037e-52
0.4676 	1.04015e-52
0.4683 	6.02643e-53
0.469 	2.22123e-54
0.4697 	1.70577e-54
0.4704 	1.23192e-54
0.4711 	7.8927e-55
0.4718 	5.64935e-55
0.4725 	4.00146e-55
0.4732 	2.28069e-55
0.4739 	1.65823e-57
0.4746 	1.27832e-57
0.4753 	9.31578e-58
0.476 	6.29058e-58
0.4767 	4.33299e-58
0.4774 	2.96855e-58
0.4781 	1.60411e-58
0.4788 	2.10474e-61
0.4795 	2.22824e-61
0.4802 	2.09051e-61
0.4809 	1.29969e-61
0.4816 	8.45335e-62
0.4823 	7.2745e-62
0.483 	6.09565e-62
0.4837 	1.02514e-62
0.4844 	1.15234e-62
0.4851 	1.58868e-62
0.4858 	9.53458e-63
0.4865 	5.44119e-63
0.4872 	5.41394e-63
0.4879 	5.38669e-63
0.4886 	1.5724e-63
0.4893 	5.00913e-64
0.49 	7.84926e-64
0.4907 	4.88273e-64
0.4914 	2.54829e-64
0.4921 	2.53165e-64
0.4928 	2.51501e-64
0.4935 	1.11593e-64
0.4942 	1.54289e-65
0.4949 	2.46405e-65
0.4956 	1.75508e-65
0.4963 	8.43916e-66
0.497 	8.36331e-66
0.4977 	8.28747e-66
0.4984 	4.92939e-66
0.4991 	1.59695e-67
0.4998 	2.56733e-67
0.5005 	2.08597e-67
0.5012 	1.02391e-67
0.5019 	9.3678e-68
0.5026 	9.24663e-68
0.5033 	7.08197e-68
0.504 	4.97837e-69
0.5047 	6.58032e-69
0.5054 	6.08085e-69
0.5061 	4.00532e-69
0.5068 	3.4626e-69
0.5075 	3.33795e-69
0.5082 	3.13538e-69
0.5089 	2.0332e-69
0.5096 	2.36038e-69
0.5103 	2.20481e-69
0.511 	1.40556e-69
0.5117 	1.07156e-69
0.5124 	9.96046e-70
0.5131 	9.20532e-70
0.5138 	4.78653e-70
0.5145 	6.00085e-70
0.5152 	6.22484e-70
0.5159 	3.97302e-70
0.5166 	2.76492e-70
0.5173 	2.60061e-70
0.518 	2.4363e-70
0.5187 	1.15189e-70
0.5194 	1.31466e-70
0.5201 	1.49514e-70
0.5208 	9.60355e-71
0.5215 	6.03837e-71
0.5222 	5.68221e-71
0.5229 	5.32604e-71
0.5236 	2.87677e-71
0.5243 	2.74105e-71
0.525 	3.575e-71
0.5257 	2.33005e-71
0.5264 	1.33922e-71
0.5271 	1.28021e-71
0.5278 	1.22121e-71
0.5285 	7.71601e-72
0.5292 	5.0681e-72
0.5299 	5.75622e-72
0.5306 	4.83276e-72
0.5313 	3.72021e-72
0.532 	3.64138e-72
0.5327 	3.56254e-72
0.5334 	2.77912e-72
0.5341 	-6.34181e-73
0.5348 	-5.31743e-72
0.5355 	-3.36398e-72
0.5362 	1.24415e-72
0.5369 	1.54611e-72
0.5376 	1.51676e-72
0.5383 	1.28065e-72
0.539 	-3.05215e-72
0.5397 	-1.32527e-71
0.5404 	-1.18202e-71
0.5411 	-1.66288e-72
0.5418 	4.39852e-73
0.5425 	3.4572e-73
0.5432 	2.19277e-73
0.5439 	-3.70475e-72
0.5446 	-1.95185e-71
0.5453 	-2.19822e-71
0.546 	-6.64579e-72
0.5467 	-1.28555e-72
0.5474 	-1.46794e-72
0.5481 	-1.65034e-72
0.5488 	-3.61241e-72
0.5495 	-2.45597e-71
0.5502 	-3.3715e-71
0.5509 	-1.33907e-71
0.5516 	-3.3287e-72
0.5523 	-3.52959e-72
0.553 	-3.73048e-72
0.5537 	-4.22219e-72
0.5544 	-2.82249e-71
0.5551 	-4.67407e-71
0.5558 	-2.15273e-71
0.5565 	-5.38144e-72
0.5572 	-5.5583e-72
0.5579 	-5.73516e-72
0.5586 	-6.10453e-72
0.5593 	-2.99728e-71
0.56 	-6.0218e-71
0.5607 	-3.04377e-71
0.5614 	-7.06823e-72
0.5621 	-7.20684e-72
0.5628 	-7.34546e-72
0.5635 	-7.59273e-72
0.5642 	-2.96858e-71
0.5649 	-6.385e-71
0.5656 	-3.97481e-71
0.5663 	-8.35763e-72
0.567 	-8.46333e-72
0.5677 	-8.56903e-72
0.5684 	-8.73077e-72
0.5691 	-2.75429e-71
0.5698 	-6.48954e-71
0.5705 	-4.90763e-71
0.5712 	-1.19885e-71
0.5719 	-9.40978e-72
0.5726 	-9.48615e-72
0.5733 	-9.58573e-72
0.574 	-2.38393e-71
0.5747 	-6.33976e-71
0.5754 	-5.7848e-71
0.5761 	-1.84676e-71
0.5768 	-1.0064e-71
0.5775 	-1.01093e-71
0.5782 	-1.01583e-71
0.5789 	-1.89486e-71
0.5796 	-5.95436e-71
0.5803 	-6.53784e-71
0.581 	-2.48661e-71
0.5817 	-1.04044e-71
0.5824 	-1.0416e-71
0.5831 	-1.04277e-71
0.5838 	-1.33384e-71
0.5845 	-5.37145e-71
0.5852 	-7.10134e-71
0.5859 	-3.06191e-71
0.5866 	-1.04103e-71
0.5873 	-1.03879e-71
0.588 	-1.03656e-71
0.5887 	-1.03162e-71
0.5894 	-4.64621e-71
0.5901 	-7.4253e-71
0.5908 	-3.52075e-71
0.5915 	-1.00872e-71
0.5922 	-1.00336e-71
0.5929 	-9.98005e-72
0.5936 	-9.87435e-72
0.5943 	-3.84454e-71
0.595 	-7.48453e-71
0.5957 	-3.82463e-71
0.5964 	-9.47257e-72
0.5971 	-9.39337e-72
0.5978 	-9.31416e-72
0.5985 	-9.17625e-72
0.5992 	-3.0329e-71
0.5999 	-6.33444e-71
0.6006 	-3.95363e-71
0.6013 	-8.6272e-72
0.602 	-8.52952e-72
0.6027 	-8.43183e-72
0.6034 	-8.28391e-72
0.6041 	-2.26907e-71
0.6048 	-5.17498e-71
0.6055 	-3.90781e-71
0.6062 	-9.71397e-72
0.6069 	-7.51559e-72
0.6076 	-7.4073e-72
0.6083 	-7.26725e-72
0.609 	-1.59604e-71
0.6097 	-4.07885e-71
0.6104 	-3.70569e-71
0.6111 	-1.19054e-71
0.6118 	-6.42807e-72
0.6125 	-6.31684e-72
0.6132 	-6.19704e-72
0.6139 	-1.0394e-71
0.6146 	-3.09929e-71
0.6153 	-3.37982e-71
0.616 	-1.28788e-71
0.6167 	-5.3382e-72
0.6174 	-5.23073e-72
0.6181 	-5.12325e-72
0.6188 	-6.077e-72
0.6195 	-2.26777e-71
0.6202 	-2.97065e-71
0.6209 	-1.28055e-71
0.6216 	-4.30541e-72
0.6223 	-4.20683e-72
0.623 	-4.10825e-72
0.6237 	-3.89976e-72
0.6244 	-1.59536e-71
0.6251 	-2.52006e-71
0.6258 	-1.19332e-71
0.6265 	-3.37311e-72
0.6272 	-3.28677e-72
0.6279 	-3.20043e-72
0.6286 	-3.03668e-72
0.6293 	-1.0765e-71
0.63 	-2.06583e-71
0.6307 	-1.05362e-71
0.6314 	-2.56746e-72
0.6321 	-2.49494e-72
0.6328 	-2.42242e-72
0.6335 	-2.30039e-72
0.6342 	-6.94238e-72
0.6349 	-1.42607e-71
0.6356 	-8.87254e-72
0.6363 	-1.89847e-72
0.637 	-1.83986e-72
0.6377 	-1.78125e-72
0.6384 	-1.69492e-72
0.6391 	-4.25471e-72
0.6398 	-9.51512e-72
0.6405 	-7.15482e-72
0.6412 	-1.74622e-72
0.6419 	-1.31739e-72
0.6426 	-1.27169e-72
0.6433 	-1.21372e-72
0.644 	-2.45458e-72
0.6447 	-6.12519e-72
0.6454 	-5.53622e-72
0.6461 	-1.75255e-72
0.6468 	-9.14629e-73
0.6475 	-8.80163e-73
0.6482 	-8.43312e-73
0.6489 	-1.31085e-72
0.6496 	-3.79162e-72
0.6503 	-4.11024e-72
0.651 	-1.54598e-72
0.6517 	-6.13958e-73
0.6524 	-5.88777e-73
0.6531 	-5.63596e-73
0.6538 	-6.27435e-73
0.6545 	-2.24421e-72
0.6552 	-2.92005e-72
0.6559 	-1.24357e-72
0.6566 	-3.96399e-73
0.6573 	-3.78582e-73
0.658 	-3.60764e-73
0.6587 	-3.25031e-73
0.6594 	-1.25841e-72
0.6601 	-1.97275e-72
0.6608 	-9.23148e-73
0.6615 	-2.44046e-73
0.6622 	-2.31883e-73
0.6629 	-2.1972e-73
0.6636 	-1.97885e-73
0.6643 	-6.59086e-73
0.665 	-1.25362e-72
0.6657 	-6.31722e-73
0.6664 	-1.4138e-73
0.6671 	-1.33447e-73
0.6678 	-1.25515e-73
0.6685 	-1.12898e-73
0.6692 	-3.15833e-73
0.6699 	-6.41345e-73
0.6706 	-3.9414e-73
0.6713 	-7.56071e-74
0.672 	-7.07512e-74
0.6727 	-6.58954e-74
0.6734 	-5.91202e-74
0.6741 	-1.34522e-73
0.6748 	-2.95895e-73
0.6755 	-2.19663e-73
0.6762 	-4.83893e-74
0.6769 	-3.36326e-74
0.6776 	-3.0918e-74
0.6783 	-2.76218e-74
0.679 	-4.8927e-74
0.6797 	-1.18896e-73
0.6804 	-1.05997e-73
0.6811 	-3.09452e-74
0.6818 	-1.38136e-74
0.6825 	-1.24795e-74
0.6832 	-1.10765e-74
0.6839 	-1.43564e-74
0.6846 	-3.96337e-74
0.6853 	-4.23005e-74
0.686 	-1.482e-74
0.6867 	-4.65348e-75
0.6874 	-4.10649e-75
0.6881 	-3.5595e-75
0.6888 	-3.11725e-75
0.6895 	-1.01913e-74
0.6902 	-1.30091e-74
0.6909 	-5.18652e-75
0.6916 	-1.18837e-75
0.6923 	-1.0149e-75
0.693 	-8.41425e-76
0.6937 	-5.50709e-76
0.6944 	-1.78246e-75
0.6951 	-2.72282e-75
0.6958 	-1.19562e-75
0.6965 	-2.00701e-76
0.6972 	-1.63917e-76
0.6979 	-1.27134e-76
0.6986 	-7.18482e-77
0.6993 	-4.74061e-77
0.7 	-3.44533e-77
