0 	1
0.0007 	1
0.0014 	1
0.0021 	1
0.0028 	1
0.0035 	1
0.0042 	1
0.0049 	1
0.0056 	1
0.0063 	1
0.007 	1
0.0077 	1
0.0084 	1
0.0091 	1
0.0098 	1
0.0105 	1
0.0112 	1
0.0119 	1
0.0126 	1
0.0133 	1
0.014 	1
0.0147 	1
0.0154 	1
0.0161 	1
0.0168 	1
0.0175 	1
0.0182 	1
0.0189 	1
0.0196 	1
0.0203 	1
0.021 	1
0.0217 	1
0.0224 	1
0.0231 	1
0.0238 	1
0.0245 	1
0.0252 	1
0.0259 	1
0.0266 	1
0.0273 	1
0.028 	1
0.0287 	1
0.0294 	1
0.0301 	1
0.0308 	1
0.0315 	1
0.0322 	1
0.0329 	1
0.0336 	1
0.0343 	1
0.035 	1
0.0357 	1
0.0364 	1
0.0371 	1
0.0378 	1
0.0385 	1
0.0392 	1
0.0399 	1
0.0406 	1
0.0413 	1
0.042 	1
0.0427 	1
0.0434 	1
0.0441 	1
0.0448 	1
0.0455 	1
0.0462 	1
0.0469 	1
0.0476 	1
0.0483 	1
0.049 	1
0.0497 	1
0.0504 	1
0.0511 	1
0.0518 	1
0.0525 	1
0.0532 	1
0.0539 	1
0.0546 	1
0.0553 	1
0.056 	1
0.0567 	1
0.0574 	1
0.0581 	1
0.0588 	1
0.0595 	1
0.0602 	1
0.0609 	1
0.0616 	1
0.0623 	1
0.063 	1
0.0637 	1
0.0644 	1
0.0651 	1
0.0658 	1
0.0665 	1
0.0672 	1
0.0679 	1
0.0686 	1
0.0693 	1
0.07 	1
0.0707 	1
0.0714 	1
0.0721 	1
0.0728 	1
0.0735 	1
0.0742 	1
0.0749 	1
0.0756 	1
0.0763 	1
0.077 	1
0.0777 	1
0.0784 	1
0.0791 	1
0.0798 	1
0.0805 	1
0.0812 	1
0.0819 	1
0.0826 	1
0.0833 	1
0.084 	1
0.0847 	1
0.0854 	1
0.0861 	1
0.0868 	1
0.0875 	1
0.0882 	1
0.0889 	1
0.0896 	1
0.0903 	1
0.091 	1
0.0917 	1
0.0924 	1
0.0931 	1
0.0938 	1
0.0945 	1
0.0952 	1
0.0959 	1
0.0966 	1
0.0973 	1
0.098 	1
0.0987 	1
0.0994 	1
0.1001 	1
0.1008 	1
0.1015 	1
0.1022 	1
0.1029 	1
0.1036 	1
0.1043 	1
0.105 	1
0.1057 	1
0.1064 	1
0.1071 	1
0.1078 	1
0.1085 	1
0.1092 	1
0.1099 	1
0.1106 	1
0.1113 	1
0.112 	1
0.1127 	1
0.1134 	1
0.1141 	1
0.1148 	1
0.1155 	1
0.1162 	1
0.1169 	1
0.1176 	1
0.1183 	1
0.119 	1
0.1197 	1
0.1204 	1
0.1211 	1
0.1218 	1
0.1225 	1
0.1232 	1
0.1239 	1
0.1246 	1
0.1253 	1
0.126 	1
0.1267 	1
0.1274 	1
0.1281 	1
0.1288 	1
0.1295 	1
0.1302 	1
0.1309 	1
0.1316 	1
0.1323 	1
0.133 	1
0.1337 	1
0.1344 	1
0.1351 	1
0.1358 	1
0.1365 	1
0.1372 	1
0.1379 	1
0.1386 	1
0.1393 	1
0.14 	1
0.1407 	1
0.1414 	1
0.1421 	1
0.1428 	1
0.1435 	1
0.1442 	1
0.1449 	1
0.1456 	1
0.1463 	1
0.147 	1
0.1477 	1
0.1484 	1
0.1491 	1
0.1498 	1
0.1505 	1
0.1512 	1
0.1519 	1
0.1526 	1
0.1533 	1
0.154 	1
0.1547 	1
0.1554 	1
0.1561 	1
0.1568 	1
0.1575 	1
0.1582 	1
0.1589 	1
0.1596 	1
0.1603 	1
0.161 	1
0.1617 	1
0.1624 	1
0.1631 	1
0.1638 	1
0.1645 	1
0.1652 	1
0.1659 	1
0.1666 	1
0.1673 	1
0.168 	1
0.1687 	1
0.1694 	1
0.1701 	1
0.1708 	1
0.1715 	1
0.1722 	1
0.1729 	1
0.1736 	1
0.1743 	1
0.175 	1
0.1757 	1
0.1764 	1
0.1771 	1
0.1778 	1
0.1785 	1
0.1792 	1
0.1799 	1
0.1806 	1
0.1813 	1
0.182 	1
0.1827 	1
0.1834 	1
0.1841 	1
0.1848 	1
0.1855 	1
0.1862 	1
0.1869 	1
0.1876 	1
0.1883 	1
0.189 	1
0.1897 	1
0.1904 	1
0.1911 	1
0.1918 	1
0.1925 	1
0.1932 	1
0.1939 	1
0.1946 	1
0.1953 	1
0.196 	1
0.1967 	1
0.1974 	1
0.1981 	1
0.1988 	1
0.1995 	1
0.2002 	1
0.2009 	1
0.2016 	1
0.2023 	1
0.203 	1
0.2037 	1
0.2044 	1
0.2051 	1
0.2058 	1
0.2065 	1
0.2072 	1
0.2079 	1
0.2086 	1
0.2093 	1
0.21 	1
0.2107 	1
0.2114 	1
0.2121 	1
0.2128 	1
0.2135 	1
0.2142 	1
0.2149 	1
0.2156 	1
0.2163 	1
0.217 	1
0.2177 	1
0.2184 	1
0.2191 	1
0.2198 	1
0.2205 	1
0.2212 	1
0.2219 	1
0.2226 	1
0.2233 	1
0.224 	1
0.2247 	1
0.2254 	1
0.2261 	1
0.2268 	1
0.2275 	1
0.2282 	1
0.2289 	1
0.2296 	1
0.2303 	1
0.231 	1
0.2317 	1
0.2324 	1
0.2331 	1
0.2338 	1
0.2345 	1
0.2352 	1
0.2359 	1
0.2366 	1
0.2373 	1
0.238 	1
0.2387 	1
0.2394 	1
0.2401 	1
0.2408 	1
0.2415 	1
0.2422 	1
0.2429 	1
0.2436 	1
0.2443 	1
0.245 	1
0.2457 	1
0.2464 	1
0.2471 	1
0.2478 	1
0.2485 	1
0.2492 	1
0.2499 	1
0.2506 	1
0.2513 	1
0.252 	1
0.2527 	1
0.2534 	1
0.2541 	1
0.2548 	1
0.2555 	1
0.2562 	1
0.2569 	1
0.2576 	1
0.2583 	1
0.259 	1
0.2597 	1
0.2604 	1
0.2611 	0.999998
0.2618 	0.999996
0.2625 	0.999994
0.2632 	0.999992
0.2639 	0.999991
0.2646 	0.999989
0.2653 	0.999988
0.266 	0.999696
0.2667 	0.999401
0.2674 	0.999107
0.2681 	0.998812
0.2688 	0.998518
0.2695 	0.998223
0.2702 	0.998029
0.2709 	0.991695
0.2716 	0.984217
0.2723 	0.976738
0.273 	0.969259
0.2737 	0.96178
0.2744 	0.954301
0.2751 	0.946601
0.2758 	0.916324
0.2765 	0.874578
0.2772 	0.832831
0.2779 	0.791084
0.2786 	0.749337
0.2793 	0.70759
0.28 	0.657502
0.2807 	0.601638
0.2814 	0.541392
0.2821 	0.481145
0.2828 	0.420898
0.2835 	0.360651
0.2842 	0.300404
0.2849 	0.237631
0.2856 	0.184182
0.2863 	0.156342
0.287 	0.128505
0.2877 	0.100667
0.2884 	0.0728301
0.2891 	0.0449929
0.2898 	0.021076
0.2905 	0.0145696
0.2912 	0.0123131
0.2919 	0.0100573
0.2926 	0.0078015
0.2933 	0.00554572
0.294 	0.00328994
0.2947 	0.00106761
0.2954 	0.000777709
0.2961 	0.000665383
0.2968 	0.000553078
0.2975 	0.00044078
0.2982 	0.000328481
0.2989 	0.000216182
0.2996 	0.000103883
0.3003 	6.61553e-05
0.301 	5.61501e-05
0.3017 	4.66046e-05
0.3024 	3.70597e-05
0.3031 	2.75147e-05
0.3038 	1.79698e-05
0.3045 	8.42481e-06
0.3052 	4.55343e-06
0.3059 	3.57049e-06
0.3066 	2.9424e-06
0.3073 	2.31432e-06
0.308 	1.68623e-06
0.3087 	1.05814e-06
0.3094 	4.30053e-07
0.3101 	1.53686e-07
0.3108 	1.07441e-07
0.3115 	8.85057e-08
0.3122 	6.95683e-08
0.3129 	5.0631e-08
0.3136 	3.16936e-08
0.3143 	1.27562e-08
0.315 	2.38162e-09
0.3157 	1.51411e-09
0.3164 	1.24985e-09
0.3171 	9.8563e-10
0.3178 	7.2141e-10
0.3185 	4.5719e-10
0.3192 	1.92969e-10
0.3199 	1.16112e-11
0.3206 	8.4826e-12
0.3213 	7.94357e-12
0.322 	7.40486e-12
0.3227 	6.86615e-12
0.3234 	6.32744e-12
0.3241 	5.78873e-12
0.3248 	5.37487e-12
0.3255 	5.54759e-12
0.3262 	5.57147e-12
0.3269 	5.59497e-12
0.3276 	5.61844e-12
0.3283 	5.64191e-12
0.329 	5.66538e-12
0.3297 	5.68508e-12
0.3304 	5.60406e-12
0.3311 	5.48644e-12
0.3318 	5.3686e-12
0.3325 	5.2507e-12
0.3332 	5.13281e-12
0.3339 	5.01491e-12
0.3346 	4.89701e-12
0.3353 	4.7982e-12
0.336 	4.69212e-12
0.3367 	4.58454e-12
0.3374 	4.47692e-12
0.3381 	4.36929e-12
0.3388 	4.26167e-12
0.3395 	4.15404e-12
0.3402 	4.05476e-12
0.3409 	3.95379e-12
0.3416 	3.84433e-12
0.3423 	3.73486e-12
0.343 	3.62539e-12
0.3437 	3.51591e-12
0.3444 	3.40644e-12
0.3451 	3.28966e-12
0.3458 	3.17913e-12
0.3465 	3.06378e-12
0.3472 	2.94852e-12
0.3479 	2.83325e-12
0.3486 	2.71798e-12
0.3493 	2.60271e-12
0.35 	2.48513e-12
0.3507 	2.3597e-12
0.3514 	2.24818e-12
0.3521 	2.13687e-12
0.3528 	2.02556e-12
0.3535 	1.91424e-12
0.3542 	1.80293e-12
0.3549 	1.69457e-12
0.3556 	1.56373e-12
0.3563 	1.46842e-12
0.357 	1.3734e-12
0.3577 	1.27838e-12
0.3584 	1.18335e-12
0.3591 	1.08833e-12
0.3598 	9.9746e-13
0.3605 	8.85201e-13
0.3612 	8.1796e-13
0.3619 	7.50955e-13
0.3626 	6.83968e-13
0.3633 	6.16981e-13
0.364 	5.49994e-13
0.3647 	4.84096e-13
0.3654 	4.09499e-13
0.3661 	3.72253e-13
0.3668 	3.35128e-13
0.3675 	2.98037e-13
0.3682 	2.60946e-13
0.3689 	2.23855e-13
0.3696 	1.86764e-13
0.3703 	1.50019e-13
0.371 	1.32649e-13
0.3717 	1.17156e-13
0.3724 	1.01688e-13
0.3731 	8.62188e-14
0.3738 	7.07501e-14
0.3745 	5.52814e-14
0.3752 	4.35515e-14
0.3759 	3.54113e-14
0.3766 	3.07294e-14
0.3773 	2.60581e-14
0.378 	2.13868e-14
0.3787 	1.67155e-14
0.3794 	1.20443e-14
0.3801 	9.39194e-15
0.3808 	6.71518e-15
0.3815 	5.73879e-15
0.3822 	4.76532e-15
0.3829 	3.79184e-15
0.3836 	2.81837e-15
0.3843 	1.8449e-15
0.385 	1.41113e-15
0.3857 	8.40078e-16
0.3864 	7.09315e-16
0.3871 	5.79033e-16
0.3878 	4.48751e-16
0.3885 	3.18469e-16
0.3892 	1.88186e-16
0.3899 	1.13491e-16
0.3906 	6.26244e-17
0.3913 	5.25885e-17
0.392 	4.25955e-17
0.3927 	3.26025e-17
0.3934 	2.26095e-17
0.3941 	1.26165e-17
0.3948 	5.12075e-18
0.3955 	3.08532e-18
0.3962 	2.65823e-18
0.3969 	2.2324e-18
0.3976 	1.80667e-18
0.3983 	1.38093e-18
0.399 	9.55196e-19
0.3997 	5.50892e-19
0.4004 	4.69029e-19
0.4011 	4.19745e-19
0.4018 	3.70378e-19
0.4025 	3.20989e-19
0.4032 	2.716e-19
0.4039 	2.22211e-19
0.4046 	1.72821e-19
0.4053 	1.39214e-19
0.406 	1.22075e-19
0.4067 	1.05609e-19
0.4074 	8.91228e-20
0.4081 	7.26371e-20
0.4088 	5.61513e-20
0.4095 	3.96656e-20
0.4102 	2.91208e-20
0.4109 	2.43988e-20
0.4116 	2.07565e-20
0.4123 	1.71072e-20
0.413 	1.3458e-20
0.4137 	9.80883e-21
0.4144 	6.15962e-21
0.4151 	4.01355e-21
0.4158 	3.14767e-21
0.4165 	2.64843e-21
0.4172 	2.14778e-21
0.4179 	1.64713e-21
0.4186 	1.14648e-21
0.4193 	6.45828e-22
0.42 	3.43359e-22
0.4207 	2.44672e-22
0.4214 	2.04081e-22
0.4221 	1.63328e-22
0.4228 	1.22575e-22
0.4235 	8.18227e-23
0.4242 	4.107e-23
0.4249 	1.34351e-23
0.4256 	8.74468e-24
0.4263 	7.26887e-24
0.427 	5.78466e-24
0.4277 	4.30046e-24
0.4284 	2.81625e-24
0.4291 	1.33204e-24
0.4298 	1.47275e-25
0.4305 	8.8206e-26
0.4312 	7.3633e-26
0.4319 	5.89562e-26
0.4326 	4.42714e-26
0.4333 	2.95867e-26
0.434 	1.49019e-26
0.4347 	1.08696e-27
0.4354 	9.46911e-28
0.4361 	8.93026e-28
0.4368 	8.37954e-28
0.4375 	7.8256e-28
0.4382 	7.27165e-28
0.4389 	6.71771e-28
0.4396 	6.16376e-28
0.4403 	5.75454e-28
0.441 	5.43036e-28
0.4417 	5.1215e-28
0.4424 	4.8085e-28
0.4431 	4.49551e-28
0.4438 	4.18252e-28
0.4445 	3.86953e-28
0.4452 	3.50699e-28
0.4459 	3.18106e-28
0.4466 	2.94069e-28
0.4473 	2.696e-28
0.448 	2.45131e-28
0.4487 	2.20663e-28
0.4494 	1.96194e-28
0.4501 	1.75769e-28
0.4508 	1.48994e-28
0.4515 	1.35158e-28
0.4522 	1.21019e-28
0.4529 	1.06879e-28
0.4536 	9.27394e-29
0.4543 	7.85997e-29
0.455 	7.09892e-29
0.4557 	5.3574e-29
0.4564 	4.76574e-29
0.4571 	4.15919e-29
0.4578 	3.55263e-29
0.4585 	2.94607e-29
0.4592 	2.33951e-29
0.4599 	1.98453e-29
0.4606 	1.38959e-29
0.4613 	1.21615e-29
0.462 	1.03799e-29
0.4627 	8.5984e-30
0.4634 	6.81688e-30
0.4641 	5.03536e-30
0.4648 	3.75452e-30
0.4655 	2.48383e-30
0.4662 	2.14336e-30
0.4669 	1.79495e-30
0.4676 	1.44593e-30
0.4683 	1.09692e-30
0.469 	7.47899e-31
0.4697 	4.32993e-31
0.4704 	2.79903e-31
0.4711 	2.38753e-31
0.4718 	1.96976e-31
0.4725 	1.5503e-31
0.4732 	1.13083e-31
0.4739 	7.11359e-32
0.4746 	2.91891e-32
0.4753 	1.93855e-32
0.476 	1.4324e-32
0.4767 	1.17034e-32
0.4774 	9.0725e-33
0.4781 	6.44165e-33
0.4788 	3.81079e-33
0.4795 	1.17994e-33
0.4802 	6.96795e-34
0.4809 	3.34453e-34
0.4816 	2.72566e-34
0.4823 	2.10737e-34
0.483 	1.48908e-34
0.4837 	8.70794e-35
0.4844 	2.52504e-35
0.4851 	7.55218e-36
0.4858 	1.75077e-36
0.4865 	1.42991e-36
0.4872 	1.11255e-36
0.4879 	7.95185e-37
0.4886 	4.77824e-37
0.4893 	1.60463e-37
0.49 	1.43102e-38
0.4907 	1.23676e-39
0.4914 	1.01341e-39
0.4921 	7.95055e-40
0.4928 	5.76694e-40
0.4935 	3.58334e-40
0.4942 	1.39974e-40
0.4949 	1.76644e-42
0.4956 	8.96175e-44
0.4963 	7.51324e-44
0.497 	6.10525e-44
0.4977 	4.69725e-44
0.4984 	3.28926e-44
0.4991 	1.88127e-44
0.4998 	8.45191e-45
0.5005 	6.81679e-45
0.5012 	6.39243e-45
0.5019 	5.8996e-45
0.5026 	5.4015e-45
0.5033 	4.9034e-45
0.504 	4.4053e-45
0.5047 	4.06731e-45
0.5054 	2.88635e-45
0.5061 	2.59927e-45
0.5068 	2.27594e-45
0.5075 	1.94272e-45
0.5082 	1.60951e-45
0.5089 	1.27629e-45
0.5096 	9.4307e-46
0.5103 	7.59245e-46
0.511 	5.82565e-46
0.5117 	5.04193e-46
0.5124 	4.22282e-46
0.5131 	3.40372e-46
0.5138 	2.58461e-46
0.5145 	1.7655e-46
0.5152 	1.78492e-46
0.5159 	9.473e-47
0.5166 	8.05864e-47
0.5173 	6.55755e-47
0.518 	5.05646e-47
0.5187 	3.55537e-47
0.5194 	2.05428e-47
0.5201 	2.88398e-47
0.5208 	8.69517e-48
0.5215 	7.3041e-48
0.5222 	5.81755e-48
0.5229 	4.331e-48
0.5236 	2.84445e-48
0.5243 	1.35789e-48
0.525 	2.62719e-48
0.5257 	3.5153e-49
0.5264 	2.93442e-49
0.5271 	2.31556e-49
0.5278 	1.69669e-49
0.5285 	1.07782e-49
0.5292 	4.58957e-50
0.5299 	6.11635e-50
0.5306 	3.82128e-51
0.5313 	3.18178e-51
0.532 	2.51765e-51
0.5327 	1.85351e-51
0.5334 	1.18937e-51
0.5341 	5.25238e-52
0.5348 	3.09474e-52
0.5355 	6.3356e-54
0.5362 	5.25055e-54
0.5369 	4.182e-54
0.5376 	3.11473e-54
0.5383 	2.04746e-54
0.539 	9.80181e-55
0.5397 	1.46537e-55
0.5404 	1.35252e-57
0.5411 	1.11667e-57
0.5418 	8.93214e-58
0.5425 	6.73134e-58
0.5432 	4.53055e-58
0.5439 	2.32975e-58
0.5446 	1.28953e-59
0.5453 	1.61373e-59
0.546 	4.98993e-62
0.5467 	3.99766e-62
0.5474 	3.04587e-62
0.5481 	2.09408e-62
0.5488 	1.14229e-62
0.5495 	1.90503e-63
0.5502 	5.3756e-64
0.5509 	5.53049e-67
0.5516 	4.43928e-67
0.5523 	3.41694e-67
0.553 	2.39459e-67
0.5537 	1.37224e-67
0.5544 	3.49896e-68
0.5551 	2.15015e-68
0.5558 	1.58476e-71
0.5565 	1.27791e-71
0.5572 	9.92921e-72
0.5579 	7.07934e-72
0.5586 	4.22946e-72
0.5593 	1.37959e-72
0.56 	6.74418e-73
0.5607 	1.15036e-76
0.5614 	-1.38237e-77
0.5621 	-1.00902e-76
0.5628 	-1.8798e-76
0.5635 	-2.75059e-76
0.5642 	-3.62137e-76
0.5649 	7.1647e-75
0.5656 	-4.14519e-76
0.5663 	-4.1462e-76
0.567 	-4.12073e-76
0.5677 	-4.09527e-76
0.5684 	-4.06981e-76
0.5691 	-4.04434e-76
0.5698 	2.60831e-74
0.5705 	-3.80034e-76
0.5712 	-3.07824e-76
0.5719 	-2.94018e-76
0.5726 	-2.84705e-76
0.5733 	-2.75391e-76
0.574 	-2.66078e-76
0.5747 	3.77412e-74
0.5754 	-2.04841e-76
0.5761 	2.22672e-76
0.5768 	3.89705e-76
0.5775 	4.85697e-76
0.5782 	5.8169e-76
0.5789 	6.77683e-76
0.5796 	7.73676e-76
0.5803 	1.32242e-73
0.581 	3.24937e-75
0.5817 	5.35571e-75
0.5824 	7.34728e-75
0.5831 	9.33885e-75
0.5838 	1.13304e-74
0.5845 	1.3322e-74
0.5852 	2.46198e-72
0.5859 	3.01777e-74
0.5866 	4.396e-74
0.5873 	6.03518e-74
0.588 	7.67435e-74
0.5887 	9.31352e-74
0.5894 	1.09527e-73
0.5901 	4.60889e-71
0.5908 	1.91536e-73
0.5915 	2.24307e-73
0.5922 	2.69399e-73
0.5929 	3.14491e-73
0.5936 	3.59583e-73
0.5943 	4.04675e-73
0.595 	3.25516e-70
0.5957 	5.66155e-73
0.5964 	5.96529e-73
0.5971 	6.44675e-73
0.5978 	6.92822e-73
0.5985 	7.40968e-73
0.5992 	7.89115e-73
0.5999 	5.47334e-70
0.6006 	8.94009e-73
0.6013 	8.99927e-73
0.602 	9.15098e-73
0.6027 	9.3027e-73
0.6034 	9.45441e-73
0.6041 	9.60613e-73
0.6048 	4.61487e-70
0.6055 	9.57762e-73
0.6062 	9.34401e-73
0.6069 	8.97813e-73
0.6076 	8.60207e-73
0.6083 	8.22602e-73
0.609 	7.84997e-73
0.6097 	1.52089e-70
0.6104 	6.01935e-73
0.6111 	5.73324e-73
0.6118 	5.26202e-73
0.6125 	4.74032e-73
0.6132 	4.21861e-73
0.6139 	3.69691e-73
0.6146 	3.1752e-73
0.6153 	6.46605e-71
0.616 	2.36037e-73
0.6167 	2.22135e-73
0.6174 	2.05417e-73
0.6181 	1.88699e-73
0.6188 	1.7198e-73
0.6195 	1.55262e-73
0.6202 	2.4506e-71
0.6209 	1.54574e-73
0.6216 	1.57797e-73
0.6223 	1.62168e-73
0.623 	1.66539e-73
0.6237 	1.7091e-73
0.6244 	1.7528e-73
0.6251 	5.22935e-72
0.6258 	1.95058e-73
0.6265 	1.97005e-73
0.6272 	1.9992e-73
0.6279 	2.02835e-73
0.6286 	2.0575e-73
0.6293 	2.08665e-73
0.63 	4.38608e-72
0.6307 	2.02596e-73
0.6314 	1.96925e-73
0.6321 	1.87599e-73
0.6328 	1.78273e-73
0.6335 	1.68947e-73
0.6342 	1.59621e-73
0.6349 	1.37782e-72
0.6356 	1.1776e-73
0.6363 	1.11151e-73
0.637 	9.87747e-74
0.6377 	8.6398e-74
0.6384 	7.40212e-74
0.6391 	6.16445e-74
0.6398 	1.6955e-73
0.6405 	3.3717e-74
0.6412 	3.12653e-74
0.6419 	2.6427e-74
0.6426 	2.14052e-74
0.6433 	1.63833e-74
0.644 	1.13615e-74
0.6447 	1.05729e-74
0.6454 	3.74774e-75
0.6461 	3.43929e-75
0.6468 	2.75428e-75
0.6475 	1.96657e-75
0.6482 	1.17886e-75
0.6489 	3.9115e-76
0.6496 	-3.96559e-76
0.6503 	-7.04058e-76
0.651 	-6.04622e-76
0.6517 	-6.17095e-76
0.6524 	-6.75638e-76
0.6531 	-7.34181e-76
0.6538 	-7.92724e-76
0.6545 	-8.51267e-76
0.6552 	-1.20569e-75
0.6559 	-7.9014e-76
0.6566 	-7.39129e-76
0.6573 	-7.41118e-76
0.658 	-7.43107e-76
0.6587 	-7.45097e-76
0.6594 	-7.47086e-76
0.6601 	-1.22676e-75
0.6608 	-6.85575e-76
0.6615 	-6.19211e-76
0.6622 	-6.19201e-76
0.6629 	-6.19192e-76
0.6636 	-6.19182e-76
0.6643 	-6.19173e-76
0.665 	-1.17956e-75
0.6657 	-5.73255e-76
0.6664 	-4.97272e-76
0.6671 	-4.96596e-76
0.6678 	-4.9592e-76
0.6685 	-4.95243e-76
0.6692 	-4.94567e-76
0.6699 	-8.31516e-76
0.6706 	-4.6463e-76
0.6713 	-3.84207e-76
0.672 	-3.83271e-76
0.6727 	-3.82335e-76
0.6734 	-3.81399e-76
0.6741 	-3.80463e-76
0.6748 	-5.48648e-76
0.6755 	-3.64317e-76
0.6762 	-2.88483e-76
0.6769 	-2.82108e-76
0.6776 	-2.81076e-76
0.6783 	-2.80043e-76
0.679 	-2.79011e-76
0.6797 	-3.31279e-76
0.6804 	-2.73768e-76
0.6811 	-2.07487e-76
0.6818 	-1.92443e-76
0.6825 	-1.91374e-76
0.6832 	-1.90305e-76
0.6839 	-1.89235e-76
0.6846 	-1.88166e-76
0.6853 	-2.23991e-76
0.686 	-1.35024e-76
0.6867 	-1.13891e-76
0.6874 	-1.12839e-76
0.6881 	-1.11786e-76
0.6888 	-1.10734e-76
0.6895 	-1.09682e-76
0.6902 	-1.62334e-76
0.6909 	-7.40432e-77
0.6916 	-5.11877e-77
0.6923 	-5.02882e-77
0.693 	-4.93888e-77
0.6937 	-4.84893e-77
0.6944 	-4.75898e-77
0.6951 	-8.49427e-77
0.6958 	-2.55375e-77
0.6965 	-3.8011e-78
0.6972 	-3.27728e-78
0.6979 	-2.75346e-78
0.6986 	-2.22965e-78
0.6993 	-1.70583e-78
0.7 	-1.01874e-78
