0 	1
0.0007 	1
0.0014 	1
0.0021 	1
0.0028 	1
0.0035 	1
0.0042 	1
0.0049 	1
0.0056 	1
0.0063 	1
0.007 	1
0.0077 	1
0.0084 	1
0.0091 	1
0.0098 	1
0.0105 	1
0.0112 	1
0.0119 	1
0.0126 	1
0.0133 	1
0.014 	1
0.0147 	1
0.0154 	1
0.0161 	1
0.0168 	1
0.0175 	1
0.0182 	1
0.0189 	1
0.0196 	1
0.0203 	1
0.021 	1
0.0217 	1
0.0224 	1
0.0231 	1
0.0238 	1
0.0245 	1
0.0252 	1
0.0259 	1
0.0266 	1
0.0273 	1
0.028 	1
0.0287 	1
0.0294 	1
0.0301 	1
0.0308 	1
0.0315 	1
0.0322 	1
0.0329 	1
0.0336 	1
0.0343 	1
0.035 	1
0.0357 	1
0.0364 	1
0.0371 	1
0.0378 	1
0.0385 	1
0.0392 	1
0.0399 	1
0.0406 	1
0.0413 	1
0.042 	1
0.0427 	1
0.0434 	1
0.0441 	1
0.0448 	1
0.0455 	1
0.0462 	1
0.0469 	1
0.0476 	1
0.0483 	1
0.049 	1
0.0497 	1
0.0504 	1
0.0511 	1
0.0518 	1
0.0525 	1
0.0532 	1
0.0539 	1
0.0546 	1
0.0553 	1
0.056 	1
0.0567 	1
0.0574 	1
0.0581 	1
0.0588 	1
0.0595 	1
0.0602 	1
0.0609 	1
0.0616 	1
0.0623 	1
0.063 	1
0.0637 	1
0.0644 	1
0.0651 	1
0.0658 	1
0.0665 	1
0.0672 	1
0.0679 	1
0.0686 	1
0.0693 	1
0.07 	1
0.0707 	1
0.0714 	1
0.0721 	1
0.0728 	1
0.0735 	1
0.0742 	1
0.0749 	1
0.0756 	1
0.0763 	1
0.077 	1
0.0777 	1
0.0784 	1
0.0791 	1
0.0798 	1
0.0805 	1
0.0812 	1
0.0819 	1
0.0826 	1
0.0833 	1
0.084 	1
0.0847 	1
0.0854 	1
0.0861 	1
0.0868 	1
0.0875 	1
0.0882 	1
0.0889 	1
0.0896 	1
0.0903 	1
0.091 	1
0.0917 	1
0.0924 	1
0.0931 	1
0.0938 	1
0.0945 	1
0.0952 	1
0.0959 	1
0.0966 	1
0.0973 	1
0.098 	1
0.0987 	1
0.0994 	1
0.1001 	1
0.1008 	1
0.1015 	1
0.1022 	1
0.1029 	1
0.1036 	1
0.1043 	1
0.105 	1
0.1057 	1
0.1064 	1
0.1071 	1
0.1078 	1
0.1085 	1
0.1092 	1
0.1099 	1
0.1106 	1
0.1113 	1
0.112 	1
0.1127 	1
0.1134 	1
0.1141 	1
0.1148 	1
0.1155 	1
0.1162 	1
0.1169 	1
0.1176 	1
0.1183 	1
0.119 	1
0.1197 	1
0.1204 	1
0.1211 	1
0.1218 	1
0.1225 	1
0.1232 	1
0.1239 	1
0.1246 	1
0.1253 	1
0.126 	1
0.1267 	1
0.1274 	1
0.1281 	1
0.1288 	1
0.1295 	1
0.1302 	1
0.1309 	1
0.1316 	1
0.1323 	1
0.133 	1
0.1337 	1
0.1344 	1
0.1351 	1
0.1358 	1
0.1365 	1
0.1372 	1
0.1379 	1
0.1386 	1
0.1393 	1
0.14 	1
0.1407 	1
0.1414 	1
0.1421 	1
0.1428 	1
0.1435 	1
0.1442 	1
0.1449 	1
0.1456 	1
0.1463 	1
0.147 	1
0.1477 	1
0.1484 	1
0.1491 	1
0.1498 	1
0.1505 	1
0.1512 	1
0.1519 	1
0.1526 	1
0.1533 	1
0.154 	1
0.1547 	1
0.1554 	1
0.1561 	1
0.1568 	1
0.1575 	1
0.1582 	1
0.1589 	1
0.1596 	1
0.1603 	1
0.161 	1
0.1617 	1
0.1624 	1
0.1631 	1
0.1638 	1
0.1645 	1
0.1652 	1
0.1659 	1
0.1666 	1
0.1673 	1
0.168 	1
0.1687 	1
0.1694 	1
0.1701 	1
0.1708 	1
0.1715 	1
0.1722 	1
0.1729 	1
0.1736 	1
0.1743 	1
0.175 	1
0.1757 	1
0.1764 	1
0.1771 	1
0.1778 	1
0.1785 	1
0.1792 	1
0.1799 	1
0.1806 	1
0.1813 	1
0.182 	1
0.1827 	1
0.1834 	1
0.1841 	1
0.1848 	1
0.1855 	1
0.1862 	1
0.1869 	1
0.1876 	1
0.1883 	1
0.189 	1
0.1897 	1
0.1904 	1
0.1911 	1
0.1918 	1
0.1925 	1
0.1932 	1
0.1939 	1
0.1946 	1
0.1953 	1
0.196 	1
0.1967 	1
0.1974 	1
0.1981 	1
0.1988 	1
0.1995 	1
0.2002 	1
0.2009 	1
0.2016 	1
0.2023 	1
0.203 	1
0.2037 	1
0.2044 	1
0.2051 	1
0.2058 	1
0.2065 	1
0.2072 	1
0.2079 	1
0.2086 	1
0.2093 	1
0.21 	1
0.2107 	1
0.2114 	1
0.2121 	1
0.2128 	1
0.2135 	1
0.2142 	1
0.2149 	1
0.2156 	1
0.2163 	1
0.217 	1
0.2177 	1
0.2184 	1
0.2191 	1
0.2198 	1
0.2205 	1
0.2212 	1
0.2219 	1
0.2226 	1
0.2233 	1
0.224 	1
0.2247 	1
0.2254 	1
0.2261 	1
0.2268 	1
0.2275 	1
0.2282 	1
0.2289 	1
0.2296 	1
0.2303 	1
0.231 	1
0.2317 	1
0.2324 	0.999999
0.2331 	0.999998
0.2338 	0.999994
0.2345 	0.999989
0.2352 	0.999985
0.2359 	0.999985
0.2366 	0.999899
0.2373 	0.999728
0.238 	0.999557
0.2387 	0.999036
0.2394 	0.998308
0.2401 	0.997623
0.2408 	0.997272
0.2415 	0.994944
0.2422 	0.989055
0.2429 	0.983167
0.2436 	0.97289
0.2443 	0.956683
0.245 	0.939287
0.2457 	0.925051
0.2464 	0.905351
0.2471 	0.865617
0.2478 	0.825882
0.2485 	0.77884
0.2492 	0.710374
0.2499 	0.632797
0.2506 	0.555634
0.2513 	0.479622
0.252 	0.417671
0.2527 	0.35572
0.2534 	0.295844
0.2541 	0.24608
0.2548 	0.203888
0.2555 	0.159159
0.2562 	0.113415
0.2569 	0.0822854
0.2576 	0.0522796
0.2583 	0.026161
0.259 	0.0144574
0.2597 	0.0128801
0.2604 	0.0105574
0.2611 	0.00767549
0.2618 	0.00536474
0.2625 	0.00320977
0.2632 	0.00127594
0.2639 	0.000628837
0.2646 	0.000554659
0.2653 	0.000460882
0.266 	0.000340972
0.2667 	0.000241838
0.2674 	0.000154248
0.2681 	6.77107e-05
0.2688 	3.36878e-05
0.2695 	2.97539e-05
0.2702 	2.51351e-05
0.2709 	1.88044e-05
0.2716 	1.33288e-05
0.2723 	8.70815e-06
0.273 	4.08754e-06
0.2737 	1.84654e-06
0.2744 	1.52991e-06
0.2751 	1.31758e-06
0.2758 	9.96213e-07
0.2765 	7.05436e-07
0.2772 	4.69725e-07
0.2779 	2.34013e-07
0.2786 	1.0169e-07
0.2793 	7.42398e-08
0.28 	6.51968e-08
0.2807 	4.97589e-08
0.2814 	3.5191e-08
0.2821 	2.38132e-08
0.2828 	1.24354e-08
0.2835 	5.145e-09
0.2842 	3.29583e-09
0.2849 	2.90087e-09
0.2856 	2.26074e-09
0.2863 	1.59255e-09
0.287 	1.0908e-09
0.2877 	5.89047e-10
0.2884 	2.2492e-10
0.2891 	1.19944e-10
0.2898 	1.04811e-10
0.2905 	8.34931e-11
0.2912 	5.97007e-11
0.2919 	4.21466e-11
0.2926 	2.50726e-11
0.2933 	1.09991e-11
0.294 	6.15485e-12
0.2947 	5.6359e-12
0.2954 	5.09863e-12
0.2961 	4.54761e-12
0.2968 	4.14711e-12
0.2975 	3.78767e-12
0.2982 	3.43977e-12
0.2989 	3.19246e-12
0.2996 	3.09563e-12
0.3003 	3.00205e-12
0.301 	2.9128e-12
0.3017 	2.76828e-12
0.3024 	2.59306e-12
0.3031 	2.41779e-12
0.3038 	2.23354e-12
0.3045 	1.96938e-12
0.3052 	1.70558e-12
0.3059 	1.44269e-12
0.3066 	1.21754e-12
0.3073 	1.03015e-12
0.308 	8.42756e-13
0.3087 	6.78076e-13
0.3094 	5.86668e-13
0.3101 	5.00313e-13
0.3108 	4.11949e-13
0.3115 	3.33895e-13
0.3122 	2.74402e-13
0.3129 	2.14909e-13
0.3136 	1.63125e-13
0.3143 	1.36851e-13
0.315 	1.16768e-13
0.3157 	9.60308e-14
0.3164 	7.67513e-14
0.3171 	6.28159e-14
0.3178 	4.88805e-14
0.3185 	3.63583e-14
0.3192 	2.91987e-14
0.3199 	2.4473e-14
0.3206 	1.96377e-14
0.3213 	1.49132e-14
0.322 	1.18673e-14
0.3227 	8.82136e-15
0.3234 	5.992e-15
0.3241 	4.33667e-15
0.3248 	3.5875e-15
0.3255 	2.83035e-15
0.3262 	2.07e-15
0.3269 	1.60118e-15
0.3276 	1.15479e-15
0.3283 	7.23984e-16
0.329 	4.4135e-16
0.3297 	3.61195e-16
0.3304 	2.81072e-16
0.3311 	2.00971e-16
0.3318 	1.49599e-16
0.3325 	1.06063e-16
0.3332 	6.27651e-17
0.3339 	2.8571e-17
0.3346 	2.32202e-17
0.3353 	1.78844e-17
0.336 	1.25688e-17
0.3367 	8.99006e-18
0.3374 	6.37636e-18
0.3381 	3.75736e-18
0.3388 	1.04194e-18
0.3395 	8.471e-19
0.3402 	6.51005e-19
0.3409 	4.51759e-19
0.3416 	3.09766e-19
0.3423 	2.25027e-19
0.343 	1.40287e-19
0.3437 	2.62592e-20
0.3444 	1.49231e-20
0.3451 	1.17304e-20
0.3458 	8.074e-21
0.3465 	5.2732e-21
0.3472 	4.01246e-21
0.3479 	2.75171e-21
0.3486 	6.38855e-22
0.3493 	1.06273e-22
0.35 	8.97936e-23
0.3507 	6.155e-23
0.3514 	3.77937e-23
0.3521 	3.04915e-23
0.3528 	2.31892e-23
0.3535 	7.78326e-24
0.3542 	2.50391e-25
0.3549 	2.35028e-25
0.3556 	1.67049e-25
0.3563 	9.48127e-26
0.357 	8.12459e-26
0.3577 	6.76791e-26
0.3584 	3.18746e-26
0.3591 	1.55257e-28
0.3598 	1.67696e-28
0.3605 	1.29301e-28
0.3612 	7.0571e-29
0.3619 	6.04868e-29
0.3626 	5.41451e-29
0.3633 	3.38103e-29
0.364 	2.18616e-32
0.3647 	2.681e-32
0.3654 	2.31299e-32
0.3661 	1.29784e-32
0.3668 	1.02505e-32
0.3675 	9.54724e-33
0.3682 	7.44376e-33
0.3689 	2.13371e-36
0.3696 	2.63086e-36
0.3703 	2.47663e-36
0.371 	1.45392e-36
0.3717 	1.04294e-36
0.3724 	9.71819e-37
0.3731 	8.85992e-37
0.3738 	2.1628e-40
0.3745 	2.67263e-40
0.3752 	2.73252e-40
0.3759 	1.66755e-40
0.3766 	1.09757e-40
0.3773 	1.02258e-40
0.378 	9.47598e-41
0.3787 	7.11055e-42
0.3794 	2.74377e-44
0.3801 	3.0367e-44
0.3808 	1.91606e-44
0.3815 	1.16717e-44
0.3822 	1.08745e-44
0.3829 	1.00772e-44
0.3836 	2.23843e-45
0.3843 	2.79934e-48
0.385 	3.349e-48
0.3857 	2.17513e-48
0.3864 	1.23483e-48
0.3871 	1.15104e-48
0.3878 	1.06725e-48
0.3885 	3.90554e-49
0.3892 	2.80215e-52
0.3899 	3.37222e-52
0.3906 	2.41567e-52
0.3913 	1.28504e-52
0.392 	1.19923e-52
0.3927 	1.11343e-52
0.3934 	5.64297e-53
0.3941 	2.73052e-56
0.3948 	3.31689e-56
0.3955 	2.611e-56
0.3962 	1.3882e-56
0.3969 	1.22189e-56
0.3976 	1.13685e-56
0.3983 	7.33541e-57
0.399 	2.57656e-60
0.3997 	3.16691e-60
0.4004 	2.73338e-60
0.4011 	1.53195e-60
0.4018 	1.21044e-60
0.4025 	1.12891e-60
0.4032 	8.82389e-61
0.4039 	2.35063e-64
0.4046 	2.93051e-64
0.4053 	2.77017e-64
0.406 	1.62286e-64
0.4067 	1.16448e-64
0.4074 	1.08885e-64
0.4081 	9.97813e-65
0.4088 	2.07641e-68
0.4095 	2.62806e-68
0.4102 	2.71803e-68
0.4109 	1.65385e-68
0.4116 	1.08764e-68
0.4123 	1.0194e-68
0.413 	9.51158e-69
0.4137 	7.14847e-70
0.4144 	2.2884e-72
0.4151 	2.58808e-72
0.4158 	1.62737e-72
0.4165 	9.88335e-73
0.4172 	9.2835e-73
0.4179 	8.68365e-73
0.4186 	1.93619e-73
0.4193 	1.94347e-76
0.42 	2.40219e-76
0.4207 	1.55457e-76
0.4214 	8.77513e-77
0.4221 	8.25847e-77
0.4228 	7.74181e-77
0.4235 	2.85045e-77
0.4242 	1.61369e-80
0.4249 	2.01702e-80
0.4256 	1.44664e-80
0.4263 	7.63182e-81
0.427 	7.19487e-81
0.4277 	6.75791e-81
0.4284 	3.45356e-81
0.4291 	1.31703e-84
0.4298 	1.6665e-84
0.4305 	1.3204e-84
0.4312 	6.96073e-85
0.4319 	6.17663e-85
0.4326 	5.8125e-85
0.4333 	3.78844e-85
0.434 	1.05797e-88
0.4347 	1.35651e-88
0.4354 	1.18438e-88
0.4361 	6.59266e-89
0.4368 	5.2319e-89
0.4375 	4.93221e-89
0.4382 	3.89928e-89
0.4389 	8.38207e-93
0.4396 	1.09094e-92
0.4403 	1.04791e-92
0.441 	6.10536e-93
0.4417 	4.38652e-93
0.4424 	4.14269e-93
0.4431 	3.84333e-93
0.4438 	6.515e-97
0.4445 	7.96339e-97
0.4452 	8.15747e-97
0.4459 	5.21577e-97
0.4466 	3.6468e-97
0.4473 	3.45058e-97
0.448 	3.25436e-97
0.4487 	2.43587e-98
0.4494 	-2.25451e-98
0.4501 	-3.97997e-98
0.4508 	-1.56499e-98
0.4515 	-1.12822e-100
0.4522 	-7.89612e-101
0.4529 	-4.51008e-101
0.4536 	-5.551e-101
0.4543 	-6.18316e-99
0.455 	-1.39746e-98
0.4557 	-6.17895e-99
0.4564 	-5.1033e-101
0.4571 	-3.82297e-101
0.4578 	-2.54264e-101
0.4585 	-1.96944e-101
0.4592 	-1.54958e-99
0.4599 	-3.92977e-99
0.4606 	-2.22848e-99
0.4613 	-1.67453e-101
0.462 	-1.25654e-101
0.4627 	-8.38558e-102
0.4634 	-5.95265e-102
0.4641 	-3.51522e-100
0.4648 	-1.04288e-99
0.4655 	-7.46294e-100
0.4662 	-5.45331e-101
0.4669 	-3.92166e-102
0.4676 	-2.63446e-102
0.4683 	-1.712e-102
0.469 	-7.018e-101
0.4697 	-2.62009e-100
0.4704 	-2.34539e-100
0.4711 	-4.25946e-101
0.4718 	-1.16659e-102
0.4725 	-7.90043e-103
0.4732 	-4.69306e-103
0.4739 	-1.13574e-101
0.4746 	-6.2237e-101
0.4753 	-6.94921e-101
0.476 	-1.85811e-101
0.4767 	-3.30986e-103
0.4774 	-2.26284e-103
0.4781 	-1.22894e-103
0.4788 	-1.04177e-102
0.4795 	-1.39717e-101
0.4802 	-1.95107e-101
0.4809 	-6.57271e-102
0.4816 	-8.97328e-104
0.4823 	-6.19856e-104
0.483 	-3.42383e-104
0.4837 	-2.9484e-104
0.4844 	-2.95927e-102
0.4851 	-5.21272e-102
0.4858 	-2.05547e-102
0.4865 	-2.32834e-104
0.4872 	-1.62587e-104
0.4879 	-9.23395e-105
0.4886 	-7.08106e-105
0.4893 	-5.89254e-103
0.49 	-1.33028e-102
0.4907 	-5.88777e-103
0.4914 	-5.7941e-105
0.4921 	-4.08881e-105
0.4928 	-2.38352e-105
0.4935 	-1.62989e-105
0.4942 	-1.09125e-103
0.4949 	-2.7638e-103
0.4956 	-1.56819e-103
0.4963 	-1.38145e-105
0.497 	-9.85226e-106
0.4977 	-5.89004e-106
0.4984 	-3.6004e-106
0.4991 	-1.85083e-104
0.4998 	-5.48214e-104
0.5005 	-3.92419e-104
0.5012 	-2.90528e-105
0.5019 	-2.27663e-106
0.5026 	-1.39464e-106
0.5033 	-7.64654e-107
0.504 	-2.78739e-105
0.5047 	-1.03844e-104
0.5054 	-9.29635e-105
0.5061 	-1.69439e-105
0.5068 	-5.05356e-107
0.5075 	-3.16877e-107
0.5082 	-1.56465e-107
0.5089 	-3.43889e-106
0.5096 	-1.87843e-105
0.5103 	-2.09723e-105
0.511 	-5.617e-106
0.5117 	-1.07953e-107
0.5124 	-6.9177e-108
0.5131 	-3.08562e-108
0.5138 	-2.43241e-107
0.5145 	-3.23609e-106
0.5152 	-4.5182e-106
0.5159 	-1.52344e-106
0.5166 	-2.22007e-108
0.5173 	-1.452e-108
0.518 	-6.8393e-109
0.5187 	-5.58058e-109
0.5194 	-5.29656e-107
0.5201 	-9.32752e-107
0.5208 	-3.67991e-107
0.5215 	-4.40269e-109
0.5222 	-2.93491e-109
0.5229 	-1.46712e-109
0.5236 	-1.02599e-109
0.5243 	-8.18827e-108
0.525 	-1.84805e-107
0.5257 	-8.18188e-108
0.5264 	-8.42505e-110
0.5271 	-5.72031e-110
0.5278 	-3.01557e-110
0.5285 	-1.83173e-110
0.5292 	-1.18878e-108
0.5299 	-3.01002e-108
0.5306 	-1.70816e-108
0.5313 	-1.56099e-110
0.532 	-1.07894e-110
0.5327 	-5.96881e-111
0.5334 	-3.19533e-111
0.5341 	-1.60806e-109
0.5348 	-4.76193e-109
0.5355 	-3.40888e-109
0.5362 	-2.53064e-110
0.5369 	-1.98297e-111
0.5376 	-1.14329e-111
0.5383 	-5.44545e-112
0.539 	-1.9627e-110
0.5397 	-7.31093e-110
0.5404 	-6.54504e-110
0.5411 	-1.19356e-110
0.5418 	-3.55225e-112
0.5425 	-2.11956e-112
0.5432 	-9.00478e-113
0.5439 	-1.97386e-111
0.5446 	-1.07825e-110
0.5453 	-1.20386e-110
0.546 	-3.22476e-111
0.5467 	-6.16299e-113
0.5474 	-3.79029e-113
0.5481 	-1.44367e-113
0.5488 	-1.14241e-112
0.5495 	-1.52148e-111
0.5502 	-2.12435e-111
0.5509 	-7.16292e-112
0.5516 	-1.0348e-113
0.5523 	-6.53916e-114
0.553 	-2.73032e-114
0.5537 	-2.1237e-114
0.5544 	-2.04569e-112
0.5551 	-3.60284e-112
0.5558 	-1.42134e-112
0.5565 	-1.68171e-114
0.5572 	-1.08931e-114
0.5579 	-4.96901e-115
0.5586 	-3.20939e-115
0.5593 	-2.61129e-113
0.56 	-5.89437e-113
0.5607 	-2.60946e-113
0.5614 	-2.65174e-115
0.5621 	-1.75679e-115
0.5628 	-8.61852e-116
0.5635 	-4.72495e-116
0.5642 	-3.1394e-114
0.5649 	-7.95086e-114
0.5656 	-4.51184e-114
0.5663 	-4.0635e-116
0.567 	-2.74862e-116
0.5677 	-1.43375e-116
0.5684 	-6.79725e-117
0.5691 	-3.50734e-115
0.5698 	-1.03898e-114
0.5705 	-7.43752e-115
0.5712 	-5.51262e-116
0.5719 	-4.18546e-117
0.5726 	-2.30255e-117
0.5733 	-9.61716e-118
0.574 	-3.55316e-116
0.5747 	-1.32424e-115
0.5754 	-1.18552e-115
0.5761 	-2.16079e-116
0.5768 	-6.24827e-118
0.5775 	-3.59315e-118
0.5782 	-1.33416e-118
0.5789 	-2.99455e-117
0.5796 	-1.63739e-116
0.5803 	-1.82822e-116
0.581 	-4.89577e-117
0.5817 	-9.12098e-119
0.5824 	-5.44787e-119
0.5831 	-1.81273e-119
0.5838 	-1.46344e-118
0.5845 	-1.95456e-117
0.5852 	-2.72924e-117
0.5859 	-9.2008e-118
0.5866 	-1.30003e-119
0.5873 	-8.02687e-120
0.588 	-3.05345e-120
0.5887 	-2.27655e-120
0.5894 	-2.24571e-118
0.5901 	-3.95555e-118
0.5908 	-1.56029e-118
0.5915 	-1.81117e-120
0.5922 	-1.15169e-120
0.5929 	-4.92212e-121
0.5936 	-2.97747e-121
0.5943 	-2.47542e-119
0.595 	-5.58851e-119
0.5957 	-2.47383e-119
0.5964 	-2.47262e-121
0.5971 	-1.61353e-121
0.5978 	-7.54443e-122
0.5985 	-3.81877e-122
0.5992 	-2.58954e-120
0.5999 	-6.55952e-120
0.6006 	-3.72211e-120
0.6013 	-3.30454e-122
0.602 	-2.20678e-122
0.6027 	-1.10902e-122
0.6034 	-4.80461e-123
0.6041 	-2.52836e-121
0.6048 	-7.49176e-121
0.6055 	-5.36283e-121
0.6062 	-3.96979e-122
0.6069 	-2.94708e-123
0.6076 	-1.57195e-123
0.6083 	-5.93295e-124
0.609 	-2.23077e-122
0.6097 	-8.31699e-122
0.6104 	-7.44583e-122
0.6111 	-1.35662e-122
0.6118 	-3.84753e-124
0.6125 	-2.15884e-124
0.6132 	-7.21921e-125
0.6139 	-1.64546e-123
0.6146 	-9.00279e-123
0.6153 	-1.00523e-122
0.616 	-2.69143e-123
0.6167 	-4.93421e-125
0.6174 	-2.88824e-125
0.6181 	-8.62283e-126
0.6188 	-7.05219e-125
0.6195 	-9.43615e-124
0.6202 	-1.31768e-123
0.6209 	-4.4417e-124
0.6216 	-6.19305e-126
0.6223 	-3.75935e-126
0.623 	-1.32565e-126
0.6237 	-9.50831e-127
0.6244 	-9.52501e-125
0.6251 	-1.67784e-124
0.6258 	-6.61793e-125
0.6265 	-7.60055e-127
0.6272 	-4.7642e-127
0.6279 	-1.92785e-127
0.6286 	-1.09626e-127
0.6293 	-9.23971e-126
0.63 	-2.08616e-125
0.6307 	-9.23431e-126
0.6314 	-9.1558e-128
0.6321 	-5.90271e-128
0.6328 	-2.64963e-128
0.6335 	-1.24275e-128
0.6342 	-8.52269e-127
0.6349 	-2.1591e-126
0.6356 	-1.22513e-126
0.6363 	-1.08151e-128
0.637 	-7.15035e-129
0.6377 	-3.48565e-129
0.6384 	-1.38973e-129
0.6391 	-7.38154e-128
0.6398 	-2.1875e-127
0.6405 	-1.56588e-127
0.6412 	-1.15866e-128
0.6419 	-8.50328e-130
0.6426 	-4.43259e-130
0.6433 	-1.53656e-130
0.644 	-5.82396e-129
0.6447 	-2.17174e-128
0.6454 	-1.94428e-128
0.6461 	-3.54212e-129
0.6468 	-9.95675e-131
0.6475 	-5.48343e-131
0.6482 	-1.67662e-131
0.6489 	-3.84333e-130
0.6496 	-2.10333e-129
0.6503 	-2.34857e-129
0.651 	-6.28793e-130
0.6517 	-1.14595e-131
0.6524 	-6.61304e-132
0.6531 	-1.8119e-132
0.6538 	-1.4863e-131
0.6545 	-1.98987e-130
0.6552 	-2.77874e-130
0.6559 	-9.3667e-131
0.6566 	-1.30206e-132
0.6573 	-7.81961e-133
0.658 	-2.6186e-133
0.6587 	-1.82376e-133
0.6594 	-1.83292e-131
0.6601 	-3.22876e-131
0.6608 	-1.27354e-131
0.6615 	-1.46196e-133
0.6622 	-9.09058e-134
0.6629 	-3.56159e-134
0.6636 	-1.94487e-134
0.6643 	-1.64026e-132
0.665 	-3.70343e-132
0.6657 	-1.63934e-132
0.6664 	-1.62899e-134
0.6671 	-1.04472e-134
0.6678 	-4.60453e-135
0.6685 	-2.08001e-135
0.6692 	-1.42362e-133
0.6699 	-3.60649e-133
0.6706 	-2.04646e-133
0.6713 	-1.81572e-135
0.672 	-1.19739e-135
0.6727 	-5.79051e-136
0.6734 	-2.25481e-136
0.6741 	-1.1912e-134
0.6748 	-3.52985e-134
0.6755 	-2.52683e-134
0.6762 	-1.8713e-135
0.6769 	-1.38464e-136
0.6776 	-7.22768e-137
0.6783 	-2.51799e-137
0.679 	-9.45569e-136
0.6797 	-3.52528e-135
0.6804 	-3.15608e-135
0.6811 	-5.75219e-136
0.6818 	-1.64366e-137
0.6825 	-9.15584e-138
0.6832 	-2.95771e-138
0.6839 	-6.6914e-137
0.6846 	-3.65973e-136
0.6853 	-4.08637e-136
0.686 	-1.09443e-136
0.6867 	-2.04575e-138
0.6874 	-1.20496e-138
0.6881 	-3.71786e-139
0.6888 	-2.99994e-138
0.6895 	-4.00437e-137
0.6902 	-5.59146e-137
0.6909 	-1.88538e-137
0.6916 	-2.70817e-139
0.6923 	-1.66307e-139
0.693 	-6.17972e-140
0.6937 	-4.56692e-140
0.6944 	-4.41335e-138
0.6951 	-7.77288e-138
0.6958 	-3.0667e-138
0.6965 	-3.64106e-140
0.6972 	-2.28166e-140
0.6979 	-9.22253e-141
0.6986 	-5.2222e-141
0.6993 	-4.95709e-141
0.7 	-4.71088e-141
