0 	1
0.0007 	1
0.0014 	1
0.0021 	1
0.0028 	1
0.0035 	1
0.0042 	1
0.0049 	1
0.0056 	1
0.0063 	1
0.007 	1
0.0077 	1
0.0084 	1
0.0091 	1
0.0098 	1
0.0105 	1
0.0112 	1
0.0119 	1
0.0126 	1
0.0133 	1
0.014 	1
0.0147 	1
0.0154 	1
0.0161 	1
0.0168 	1
0.0175 	1
0.0182 	1
0.0189 	1
0.0196 	1
0.0203 	1
0.021 	1
0.0217 	1
0.0224 	1
0.0231 	1
0.0238 	1
0.0245 	1
0.0252 	1
0.0259 	1
0.0266 	1
0.0273 	1
0.028 	1
0.0287 	1
0.0294 	1
0.0301 	1
0.0308 	1
0.0315 	1
0.0322 	1
0.0329 	1
0.0336 	1
0.0343 	1
0.035 	1
0.0357 	1
0.0364 	1
0.0371 	1
0.0378 	1
0.0385 	1
0.0392 	1
0.0399 	1
0.0406 	1
0.0413 	1
0.042 	1
0.0427 	1
0.0434 	1
0.0441 	1
0.0448 	1
0.0455 	1
0.0462 	1
0.0469 	1
0.0476 	1
0.0483 	1
0.049 	1
0.0497 	1
0.0504 	1
0.0511 	1
0.0518 	1
0.0525 	1
0.0532 	1
0.0539 	1
0.0546 	1
0.0553 	1
0.056 	1
0.0567 	1
0.0574 	1
0.0581 	1
0.0588 	1
0.0595 	1
0.0602 	1
0.0609 	1
0.0616 	1
0.0623 	1
0.063 	1
0.0637 	1
0.0644 	1
0.0651 	1
0.0658 	1
0.0665 	1
0.0672 	1
0.0679 	1
0.0686 	1
0.0693 	1
0.07 	1
0.0707 	1
0.0714 	1
0.0721 	1
0.0728 	1
0.0735 	1
0.0742 	1
0.0749 	1
0.0756 	1
0.0763 	1
0.077 	1
0.0777 	1
0.0784 	1
0.0791 	1
0.0798 	1
0.0805 	1
0.0812 	1
0.0819 	1
0.0826 	1
0.0833 	1
0.084 	1
0.0847 	1
0.0854 	1
0.0861 	1
0.0868 	1
0.0875 	1
0.0882 	1
0.0889 	1
0.0896 	1
0.0903 	1
0.091 	1
0.0917 	1
0.0924 	1
0.0931 	1
0.0938 	1
0.0945 	1
0.0952 	1
0.0959 	1
0.0966 	1
0.0973 	1
0.098 	1
0.0987 	1
0.0994 	1
0.1001 	1
0.1008 	1
0.1015 	1
0.1022 	1
0.1029 	1
0.1036 	1
0.1043 	1
0.105 	1
0.1057 	1
0.1064 	1
0.1071 	1
0.1078 	1
0.1085 	1
0.1092 	1
0.1099 	1
0.1106 	1
0.1113 	1
0.112 	1
0.1127 	1
0.1134 	1
0.1141 	1
0.1148 	1
0.1155 	1
0.1162 	1
0.1169 	1
0.1176 	1
0.1183 	1
0.119 	1
0.1197 	1
0.1204 	1
0.1211 	1
0.1218 	1
0.1225 	1
0.1232 	1
0.1239 	1
0.1246 	1
0.1253 	1
0.126 	1
0.1267 	1
0.1274 	1
0.1281 	1
0.1288 	1
0.1295 	1
0.1302 	1
0.1309 	1
0.1316 	1
0.1323 	1
0.133 	1
0.1337 	1
0.1344 	1
0.1351 	1
0.1358 	1
0.1365 	1
0.1372 	1
0.1379 	1
0.1386 	1
0.1393 	1
0.14 	1
0.1407 	1
0.1414 	1
0.1421 	1
0.1428 	1
0.1435 	1
0.1442 	1
0.1449 	1
0.1456 	1
0.1463 	1
0.147 	1
0.1477 	1
0.1484 	1
0.1491 	1
0.1498 	1
0.1505 	1
0.1512 	1
0.1519 	1
0.1526 	1
0.1533 	1
0.154 	1
0.1547 	1
0.1554 	1
0.1561 	1
0.1568 	1
0.1575 	1
0.1582 	1
0.1589 	1
0.1596 	1
0.1603 	1
0.161 	1
0.1617 	1
0.1624 	1
0.1631 	1
0.1638 	1
0.1645 	1
0.1652 	1
0.1659 	1
0.1666 	1
0.1673 	1
0.168 	1
0.1687 	1
0.1694 	1
0.1701 	1
0.1708 	1
0.1715 	1
0.1722 	1
0.1729 	1
0.1736 	1
0.1743 	1
0.175 	1
0.1757 	1
0.1764 	1
0.1771 	1
0.1778 	1
0.1785 	1
0.1792 	1
0.1799 	1
0.1806 	1
0.1813 	1
0.182 	1
0.1827 	1
0.1834 	1
0.1841 	1
0.1848 	1
0.1855 	1
0.1862 	1
0.1869 	1
0.1876 	1
0.1883 	1
0.189 	1
0.1897 	1
0.1904 	1
0.1911 	1
0.1918 	1
0.1925 	1
0.1932 	1
0.1939 	1
0.1946 	1
0.1953 	1
0.196 	1
0.1967 	1
0.1974 	1
0.1981 	1
0.1988 	1
0.1995 	1
0.2002 	1
0.2009 	1
0.2016 	1
0.2023 	1
0.203 	1
0.2037 	1
0.2044 	1
0.2051 	1
0.2058 	1
0.2065 	1
0.2072 	1
0.2079 	1
0.2086 	1
0.2093 	1
0.21 	1
0.2107 	1
0.2114 	1
0.2121 	1
0.2128 	1
0.2135 	1
0.2142 	1
0.2149 	1
0.2156 	1
0.2163 	1
0.217 	1
0.2177 	1
0.2184 	1
0.2191 	1
0.2198 	1
0.2205 	1
0.2212 	1
0.2219 	1
0.2226 	1
0.2233 	1
0.224 	1
0.2247 	1
0.2254 	1
0.2261 	1
0.2268 	1
0.2275 	1
0.2282 	1
0.2289 	1
0.2296 	1
0.2303 	1
0.231 	1
0.2317 	1
0.2324 	1
0.2331 	1
0.2338 	1
0.2345 	1
0.2352 	1
0.2359 	1
0.2366 	1
0.2373 	1
0.238 	1
0.2387 	1
0.2394 	1
0.2401 	1
0.2408 	1
0.2415 	1
0.2422 	1
0.2429 	1
0.2436 	1
0.2443 	1
0.245 	1
0.2457 	1
0.2464 	1
0.2471 	1
0.2478 	1
0.2485 	1
0.2492 	1
0.2499 	1
0.2506 	1
0.2513 	1
0.252 	1
0.2527 	1
0.2534 	1
0.2541 	1
0.2548 	1
0.2555 	1
0.2562 	1
0.2569 	1
0.2576 	1
0.2583 	1
0.259 	1
0.2597 	1
0.2604 	1
0.2611 	1
0.2618 	0.999999
0.2625 	0.999999
0.2632 	0.999999
0.2639 	0.999998
0.2646 	0.999998
0.2653 	0.999997
0.266 	0.999996
0.2667 	0.999993
0.2674 	0.999989
0.2681 	0.999983
0.2688 	0.999976
0.2695 	0.999966
0.2702 	0.999957
0.2709 	0.999948
0.2716 	0.99991
0.2723 	0.999837
0.273 	0.999737
0.2737 	0.999636
0.2744 	0.999481
0.2751 	0.999323
0.2758 	0.999182
0.2765 	0.998529
0.2772 	0.996955
0.2779 	0.994448
0.2786 	0.991912
0.2793 	0.988251
0.28 	0.984284
0.2807 	0.980869
0.2814 	0.972493
0.2821 	0.945929
0.2828 	0.914114
0.2835 	0.881185
0.2842 	0.833379
0.2849 	0.777307
0.2856 	0.722663
0.2863 	0.66773
0.287 	0.605953
0.2877 	0.543391
0.2884 	0.480462
0.2891 	0.413847
0.2898 	0.343548
0.2905 	0.273766
0.2912 	0.20419
0.2919 	0.159138
0.2926 	0.119351
0.2933 	0.082495
0.294 	0.0550688
0.2947 	0.0446166
0.2954 	0.0339072
0.2961 	0.023005
0.2968 	0.0154505
0.2975 	0.00963548
0.2982 	0.00510913
0.2989 	0.00149533
0.2996 	0.00122739
0.3003 	0.000942177
0.301 	0.000633919
0.3017 	0.000396061
0.3024 	0.000219051
0.3031 	0.000108664
0.3038 	6.09308e-06
0.3045 	5.12106e-06
0.3052 	4.05794e-06
0.3059 	2.76707e-06
0.3066 	1.67861e-06
0.3073 	8.41292e-07
0.308 	4.36576e-07
0.3087 	3.18606e-08
0.3094 	2.5738e-09
0.3101 	2.12877e-09
0.3108 	1.47692e-09
0.3115 	8.89509e-10
0.3122 	4.18088e-10
0.3129 	2.25423e-10
0.3136 	4.54381e-11
0.3143 	7.00914e-12
0.315 	7.18479e-12
0.3157 	7.35894e-12
0.3164 	7.5585e-12
0.3171 	7.85124e-12
0.3178 	8.17291e-12
0.3185 	8.50129e-12
0.3192 	8.9067e-12
0.3199 	9.3549e-12
0.3206 	9.80252e-12
0.3213 	1.02413e-11
0.322 	1.05666e-11
0.3227 	1.08794e-11
0.3234 	1.1186e-11
0.3241 	1.14323e-11
0.3248 	1.16182e-11
0.3255 	1.18017e-11
0.3262 	1.19841e-11
0.3269 	1.20605e-11
0.3276 	1.2112e-11
0.3283 	1.21483e-11
0.329 	1.2144e-11
0.3297 	1.20666e-11
0.3304 	1.1988e-11
0.3311 	1.19084e-11
0.3318 	1.17355e-11
0.3325 	1.15237e-11
0.3332 	1.12896e-11
0.3339 	1.10299e-11
0.3346 	1.06767e-11
0.3353 	1.03256e-11
0.336 	9.97749e-12
0.3367 	9.55365e-12
0.3374 	9.07905e-12
0.3381 	8.57574e-12
0.3388 	8.06395e-12
0.3395 	7.44187e-12
0.3402 	6.82265e-12
0.3409 	6.21058e-12
0.3416 	5.62501e-12
0.3423 	5.06619e-12
0.343 	4.5099e-12
0.3437 	3.95362e-12
0.3444 	3.44537e-12
0.3451 	2.94159e-12
0.3458 	2.44241e-12
0.3465 	1.99827e-12
0.3472 	1.65322e-12
0.3479 	1.33817e-12
0.3486 	1.02492e-12
0.3493 	8.3215e-13
0.35 	6.72241e-13
0.3507 	5.12371e-13
0.3514 	3.6606e-13
0.3521 	2.69461e-13
0.3528 	1.87791e-13
0.3535 	1.09885e-13
0.3542 	7.25178e-14
0.3549 	5.7671e-14
0.3556 	4.24636e-14
0.3563 	2.76288e-14
0.357 	1.84185e-14
0.3577 	1.10956e-14
0.3584 	4.77127e-15
0.3591 	1.46654e-15
0.3598 	1.18131e-15
0.3605 	8.74489e-16
0.3612 	5.59027e-16
0.3619 	3.48613e-16
0.3626 	1.91475e-16
0.3633 	7.78839e-17
0.364 	4.58071e-18
0.3647 	3.79328e-18
0.3654 	2.88043e-18
0.3661 	1.87351e-18
0.3668 	1.11047e-18
0.3675 	5.5493e-19
0.3682 	2.45074e-19
0.3689 	1.57073e-21
0.3696 	1.35123e-21
0.3703 	1.07102e-21
0.371 	7.09888e-22
0.3717 	4.08266e-22
0.3724 	1.78437e-22
0.3731 	8.59599e-23
0.3738 	8.79295e-26
0.3745 	7.6045e-26
0.3752 	6.18676e-26
0.3759 	4.19579e-26
0.3766 	2.45669e-26
0.3773 	1.04354e-26
0.378 	5.39994e-27
0.3787 	3.64453e-28
0.3794 	4.21192e-30
0.3801 	3.51228e-30
0.3808 	2.43147e-30
0.3815 	1.44734e-30
0.3822 	6.37238e-31
0.3829 	3.29073e-31
0.3836 	5.82804e-32
0.3843 	2.28475e-34
0.385 	1.94973e-34
0.3857 	1.37502e-34
0.3864 	8.30962e-35
0.3871 	3.99251e-35
0.3878 	1.94388e-35
0.3885 	5.12521e-36
0.3892 	1.21725e-38
0.3899 	1.04293e-38
0.3906 	7.60882e-39
0.3913 	4.66193e-39
0.392 	2.40648e-39
0.3927 	1.11945e-39
0.3934 	3.73604e-40
0.3941 	6.40376e-43
0.3948 	5.50262e-43
0.3955 	4.14153e-43
0.3962 	2.59645e-43
0.3969 	1.40801e-43
0.3976 	6.32676e-44
0.3983 	2.47781e-44
0.399 	3.34193e-47
0.3997 	2.87768e-47
0.4004 	2.22805e-47
0.4011 	1.43939e-47
0.4018 	8.05352e-48
0.4025 	3.52517e-48
0.4032 	1.55207e-48
0.4039 	1.73342e-51
0.4046 	1.49531e-51
0.4053 	1.18783e-51
0.406 	7.87849e-52
0.4067 	4.52282e-52
0.4074 	1.93919e-52
0.4081 	9.34148e-53
0.4088 	8.92807e-56
0.4095 	7.71704e-56
0.4102 	6.27616e-56
0.4109 	4.26064e-56
0.4116 	2.49814e-56
0.4123 	1.05208e-56
0.413 	5.44395e-57
0.4137 	3.67117e-58
0.4144 	3.94631e-60
0.4151 	3.2811e-60
0.4158 	2.27389e-60
0.4165 	1.35694e-60
0.4172 	6.02457e-61
0.4179 	3.08181e-61
0.4186 	5.45675e-62
0.4193 	1.9941e-64
0.42 	1.69343e-64
0.4207 	1.19548e-64
0.4214 	7.24217e-65
0.4221 	3.50799e-65
0.4228 	1.69744e-65
0.4235 	4.47492e-66
0.4242 	9.93541e-69
0.4249 	8.47418e-69
0.4256 	6.18219e-69
0.4263 	3.79494e-69
0.427 	1.96908e-69
0.4277 	9.10965e-70
0.4284 	3.04002e-70
0.4291 	4.86201e-73
0.4298 	4.13738e-73
0.4305 	3.11375e-73
0.4312 	1.97051e-73
0.4319 	1.07112e-73
0.4326 	4.77057e-74
0.4333 	1.86769e-74
0.434 	-1.35338e-75
0.4347 	-5.18658e-75
0.4354 	-4.64621e-75
0.4361 	-8.25675e-76
0.4368 	-1.47231e-77
0.4375 	-2.20916e-77
0.4382 	-2.47163e-77
0.4389 	-1.87826e-75
0.4396 	-1.05183e-74
0.4403 	-1.17545e-74
0.441 	-3.11876e-75
0.4417 	-3.6839e-77
0.4424 	-3.97818e-77
0.4431 	-4.05808e-77
0.4438 	-7.15713e-76
0.4445 	-1.01566e-74
0.4452 	-1.42029e-74
0.4459 	-4.76288e-75
0.4466 	-4.29116e-77
0.4473 	-4.29584e-77
0.448 	-4.29285e-77
0.4487 	-4.28985e-77
0.4494 	-7.98515e-75
0.4501 	-1.40944e-74
0.4508 	-5.54019e-75
0.4515 	-4.0477e-77
0.4522 	-3.87681e-77
0.4529 	-3.82208e-77
0.4536 	-3.77913e-77
0.4543 	-5.52375e-75
0.455 	-1.2506e-74
0.4557 	-5.52197e-75
0.4564 	-3.40653e-77
0.4571 	-3.17335e-77
0.4578 	-3.07602e-77
0.4585 	-3.02075e-77
0.4592 	-3.42589e-75
0.4599 	-8.70833e-75
0.4606 	-4.93355e-75
0.4613 	-2.65461e-77
0.462 	-2.42297e-77
0.4627 	-2.30203e-77
0.4634 	-2.24915e-77
0.4641 	-1.89726e-75
0.4648 	-5.64728e-75
0.4655 	-4.03896e-75
0.4662 	-2.8729e-76
0.4669 	-1.74799e-77
0.4676 	-1.62258e-77
0.4683 	-1.57858e-77
0.469 	-9.13341e-76
0.4697 	-3.42726e-75
0.4704 	-3.06739e-75
0.4711 	-5.5218e-76
0.4718 	-1.19932e-77
0.4725 	-1.08418e-77
0.4732 	-1.05082e-77
0.4739 	-3.52581e-76
0.4746 	-1.95012e-75
0.4753 	-2.17793e-75
0.476 	-5.79459e-76
0.4767 	-7.85519e-78
0.4774 	-6.89393e-78
0.4781 	-6.65878e-78
0.4788 	-7.53696e-77
0.4795 	-1.04033e-75
0.4802 	-1.4537e-75
0.4809 	-4.88102e-76
0.4816 	-4.9232e-78
0.4823 	-4.18227e-78
0.483 	-4.02672e-78
0.4837 	-3.87117e-78
0.4844 	-5.19426e-76
0.4851 	-9.15955e-76
0.4858 	-3.60323e-76
0.4865 	-2.95766e-78
0.4872 	-2.46559e-78
0.4879 	-2.32816e-78
0.4886 	-2.231e-78
0.4893 	-2.41765e-76
0.49 	-5.46651e-76
0.4907 	-2.41517e-76
0.4914 	-1.7054e-78
0.4921 	-1.40603e-78
0.4928 	-1.28896e-78
0.4935 	-1.23142e-78
0.4942 	-1.041e-76
0.4949 	-2.6415e-76
0.4956 	-1.49706e-76
0.4963 	-9.44788e-79
0.497 	-7.7158e-79
0.4977 	-6.84218e-79
0.4984 	-6.518e-79
0.4991 	-4.0858e-77
0.4998 	-1.21302e-76
0.5005 	-8.67703e-77
0.5012 	-6.24787e-78
0.5019 	-4.078e-79
0.5026 	-3.48638e-79
0.5033 	-3.31227e-79
0.504 	-1.41667e-77
0.5047 	-5.2937e-77
0.5054 	-4.7375e-77
0.5061 	-8.56384e-78
0.5068 	-2.07732e-79
0.5075 	-1.70702e-79
0.5082 	-1.61768e-79
0.5089 	-3.99948e-78
0.5096 	-2.19413e-77
0.5103 	-2.44957e-77
0.511 	-6.53341e-78
0.5117 	-1.02053e-79
0.5124 	-8.03914e-80
0.5131 	-7.60045e-80
0.5138 	-6.42175e-79
0.5145 	-8.62526e-78
0.5152 	-1.20438e-77
0.5159 	-4.05092e-78
0.5166 	-4.83795e-80
0.5173 	-3.64495e-80
0.518 	-3.43848e-80
0.5187 	-3.23202e-80
0.5194 	-3.20737e-78
0.5201 	-5.64918e-78
0.5208 	-2.22526e-78
0.5215 	-2.21434e-80
0.5222 	-1.64509e-80
0.5229 	-1.4992e-80
0.5236 	-1.40594e-80
0.5243 	-1.12304e-78
0.525 	-2.53471e-78
0.5257 	-1.12106e-78
0.5264 	-9.79037e-81
0.5271 	-7.25282e-81
0.5278 	-6.30509e-81
0.5285 	-5.90024e-81
0.5292 	-3.67268e-79
0.5299 	-9.29617e-79
0.5306 	-5.2722e-79
0.5313 	-4.18358e-81
0.532 	-3.09528e-81
0.5327 	-2.55988e-81
0.5334 	-2.39079e-81
0.5341 	-1.10502e-79
0.5348 	-3.26892e-79
0.5355 	-2.33909e-79
0.5362 	-1.71769e-80
0.5369 	-1.27912e-81
0.5376 	-1.00414e-81
0.5383 	-9.36119e-82
0.539 	-2.96479e-80
0.5397 	-1.10163e-79
0.5404 	-9.85838e-80
0.5411 	-1.79345e-80
0.5418 	-5.1202e-82
0.5425 	-3.80858e-82
0.5432 	-3.54471e-82
0.5439 	-6.54736e-81
0.5446 	-3.55439e-80
0.5453 	-3.96644e-80
0.546 	-1.06169e-80
0.5467 	-1.98599e-82
0.5474 	-1.39783e-82
0.5481 	-1.29904e-82
0.5488 	-8.434e-82
0.5495 	-1.09604e-80
0.5502 	-1.5291e-80
0.5509 	-5.15528e-81
0.5516 	-7.4669e-83
0.5523 	-4.96821e-83
0.553 	-4.61087e-83
0.5537 	-4.25353e-83
0.5544 	-3.22061e-81
0.5551 	-5.66453e-81
0.5558 	-2.23512e-81
0.5565 	-2.7224e-83
0.5572 	-1.80469e-83
0.5579 	-1.58627e-83
0.5586 	-1.46129e-83
0.5593 	-8.97353e-82
0.56 	-2.02118e-81
0.5607 	-8.95092e-82
0.5614 	-9.62928e-84
0.5621 	-6.44009e-84
0.5628 	-5.29322e-84
0.5635 	-4.8701e-84
0.5642 	-2.35111e-82
0.5649 	-5.93496e-82
0.5656 	-3.36864e-82
0.5663 	-3.30569e-84
0.567 	-2.23213e-84
0.5677 	-1.71439e-84
0.5684 	-1.57564e-84
0.5691 	-5.70507e-83
0.5698 	-1.68139e-82
0.5705 	-1.20358e-82
0.5712 	-9.02879e-84
0.5719 	-7.51599e-85
0.5726 	-5.39317e-85
0.5733 	-4.95204e-85
0.574 	-1.24291e-83
0.5747 	-4.59232e-83
0.5754 	-4.10954e-83
0.5761 	-7.5264e-84
0.5768 	-2.45935e-85
0.5775 	-1.64896e-85
0.5782 	-1.51288e-85
0.5789 	-2.24701e-84
0.5796 	-1.20768e-83
0.5803 	-1.34714e-83
0.581 	-3.61889e-84
0.5817 	-7.82296e-86
0.5824 	-4.90326e-86
0.5831 	-4.49569e-86
0.5838 	-2.41883e-85
0.5845 	-3.05176e-84
0.5852 	-4.25409e-84
0.5859 	-1.43756e-84
0.5866 	-2.41996e-86
0.5873 	-1.41886e-86
0.588 	-1.30024e-86
0.5887 	-1.18162e-86
0.5894 	-7.38633e-85
0.5901 	-1.29752e-84
0.5908 	-5.12799e-85
0.5915 	-7.28311e-87
0.5922 	-4.32279e-87
0.5929 	-3.66224e-87
0.5936 	-3.32654e-87
0.5943 	-1.70357e-85
0.595 	-3.83033e-85
0.5957 	-1.6983e-85
0.5964 	-2.1335e-87
0.5971 	-1.29659e-87
0.5978 	-1.00511e-87
0.5985 	-9.12664e-88
0.5992 	-3.71222e-86
0.5999 	-9.34995e-86
0.6006 	-5.31078e-86
0.6013 	-6.08611e-88
0.602 	-3.78217e-88
0.6027 	-2.68945e-88
0.6034 	-2.44157e-88
0.6041 	-7.5266e-87
0.6048 	-2.21162e-86
0.6055 	-1.58367e-86
0.6062 	-1.20951e-87
0.6069 	-1.07347e-88
0.6076 	-7.01974e-89
0.6083 	-6.37218e-89
0.609 	-1.37659e-87
0.6097 	-5.06428e-87
0.6104 	-4.53196e-87
0.6111 	-8.34638e-88
0.6118 	-2.96602e-89
0.6125 	-1.7882e-89
0.6132 	-1.6233e-89
0.6139 	-2.10116e-88
0.6146 	-1.12094e-87
0.6153 	-1.25003e-87
0.616 	-3.36791e-88
0.6167 	-7.9842e-90
0.6174 	-4.45001e-90
0.6181 	-4.04042e-90
0.6188 	-1.9373e-89
0.6195 	-2.3935e-88
0.6202 	-3.33457e-88
0.6209 	-1.12892e-88
0.6216 	-2.09577e-90
0.6223 	-1.08314e-90
0.623 	-9.83774e-91
0.6237 	-8.84406e-91
0.6244 	-4.91764e-89
0.6251 	-8.63094e-89
0.6258 	-3.41546e-89
0.6265 	-5.37311e-91
0.6272 	-2.87429e-91
0.6279 	-2.34837e-91
0.6286 	-2.1126e-91
0.6293 	-9.68088e-90
0.63 	-2.17395e-89
0.6307 	-9.64799e-90
0.6314 	-1.34738e-91
0.6321 	-7.52073e-92
0.6328 	-5.50412e-92
0.6335 	-4.95514e-92
0.6342 	-1.81337e-90
0.6349 	-4.56014e-90
0.6356 	-2.59169e-90
0.6363 	-3.31091e-92
0.637 	-1.91821e-92
0.6377 	-1.26698e-92
0.6384 	-1.14155e-92
0.6391 	-3.18166e-91
0.6398 	-9.32919e-91
0.6405 	-6.68237e-91
0.6412 	-5.17793e-92
0.6419 	-4.77698e-93
0.6426 	-2.86713e-93
0.6433 	-2.58566e-93
0.644 	-5.07261e-92
0.6447 	-1.86026e-91
0.6454 	-1.66481e-91
0.6461 	-3.08039e-92
0.6468 	-1.16298e-93
0.6475 	-6.37928e-94
0.6482 	-5.75819e-94
0.6489 	-6.80317e-93
0.6496 	-3.60918e-92
0.6503 	-4.02406e-92
0.651 	-1.08696e-92
0.6517 	-2.76986e-94
0.6524 	-1.39486e-94
0.6531 	-1.26018e-94
0.6538 	-5.5876e-94
0.6545 	-6.79215e-93
0.6552 	-9.45857e-93
0.6559 	-3.20756e-93
0.6566 	-6.45658e-95
0.6573 	-2.99761e-95
0.658 	-2.71079e-95
0.6587 	-2.42396e-95
0.6594 	-1.23516e-93
0.6601 	-2.16627e-93
0.6608 	-8.58274e-94
0.6615 	-1.47415e-95
0.6622 	-7.24118e-96
0.6629 	-5.73623e-96
0.6636 	-5.1359e-96
0.6643 	-2.15955e-94
0.665 	-4.84433e-94
0.6657 	-2.15188e-94
0.6664 	-3.30026e-96
0.6671 	-1.71857e-96
0.6678 	-1.19508e-96
0.6685 	-1.07145e-96
0.6692 	-3.60028e-95
0.6699 	-9.04091e-95
0.6706 	-5.14137e-95
0.6713 	-7.25241e-97
0.672 	-3.96894e-97
0.6727 	-2.45251e-97
0.6734 	-2.20178e-97
0.6741 	-5.63722e-96
0.6748 	-1.64964e-95
0.6755 	-1.18201e-95
0.6762 	-9.29643e-97
0.6769 	-8.9411e-98
0.6776 	-4.95822e-98
0.6783 	-4.45734e-98
0.679 	-8.03893e-97
0.6797 	-2.939e-96
0.6804 	-2.63045e-96
0.6811 	-4.89159e-97
0.6818 	-1.96833e-98
0.6825 	-9.87598e-99
0.6832 	-8.89029e-99
0.6839 	-9.67409e-98
0.6846 	-5.10324e-97
0.6853 	-5.68891e-97
0.686 	-1.54105e-97
0.6867 	-4.24057e-99
0.6874 	-1.93861e-99
0.6881 	-1.74751e-99
0.6888 	-7.20897e-99
0.6895 	-8.61535e-98
0.6902 	-1.19921e-97
0.6909 	-4.07455e-98
0.6916 	-8.95236e-100
0.6923 	-3.75191e-100
0.693 	-3.38677e-100
0.6937 	-3.02164e-100
0.6944 	-1.40935e-98
0.6951 	-2.46979e-98
0.6958 	-9.7993e-99
0.6965 	-1.91221e-100
0.6972 	-1.06138e-100
0.6979 	-8.98472e-101
0.6986 	-8.40474e-101
0.6993 	-3.74888e-99
0.7 	-8.41479e-99
