0 	1
0.0007 	1
0.0014 	1
0.0021 	1
0.0028 	1
0.0035 	1
0.0042 	1
0.0049 	1
0.0056 	1
0.0063 	1
0.007 	1
0.0077 	1
0.0084 	1
0.0091 	1
0.0098 	1
0.0105 	1
0.0112 	1
0.0119 	1
0.0126 	1
0.0133 	1
0.014 	1
0.0147 	1
0.0154 	1
0.0161 	1
0.0168 	1
0.0175 	1
0.0182 	1
0.0189 	1
0.0196 	1
0.0203 	1
0.021 	1
0.0217 	1
0.0224 	1
0.0231 	1
0.0238 	1
0.0245 	1
0.0252 	1
0.0259 	1
0.0266 	1
0.0273 	1
0.028 	1
0.0287 	1
0.0294 	1
0.0301 	1
0.0308 	1
0.0315 	1
0.0322 	1
0.0329 	1
0.0336 	1
0.0343 	1
0.035 	1
0.0357 	1
0.0364 	1
0.0371 	1
0.0378 	1
0.0385 	1
0.0392 	1
0.0399 	1
0.0406 	1
0.0413 	1
0.042 	1
0.0427 	1
0.0434 	1
0.0441 	1
0.0448 	1
0.0455 	1
0.0462 	1
0.0469 	1
0.0476 	1
0.0483 	1
0.049 	1
0.0497 	1
0.0504 	1
0.0511 	1
0.0518 	1
0.0525 	1
0.0532 	1
0.0539 	1
0.0546 	1
0.0553 	1
0.056 	1
0.0567 	1
0.0574 	1
0.0581 	1
0.0588 	1
0.0595 	1
0.0602 	1
0.0609 	1
0.0616 	1
0.0623 	1
0.063 	1
0.0637 	1
0.0644 	1
0.0651 	1
0.0658 	1
0.0665 	1
0.0672 	1
0.0679 	1
0.0686 	1
0.0693 	1
0.07 	1
0.0707 	1
0.0714 	1
0.0721 	1
0.0728 	1
0.0735 	1
0.0742 	1
0.0749 	1
0.0756 	1
0.0763 	1
0.077 	1
0.0777 	1
0.0784 	1
0.0791 	1
0.0798 	1
0.0805 	1
0.0812 	1
0.0819 	1
0.0826 	1
0.0833 	1
0.084 	1
0.0847 	1
0.0854 	1
0.0861 	1
0.0868 	1
0.0875 	1
0.0882 	1
0.0889 	1
0.0896 	1
0.0903 	1
0.091 	1
0.0917 	1
0.0924 	1
0.0931 	1
0.0938 	1
0.0945 	1
0.0952 	1
0.0959 	1
0.0966 	1
0.0973 	1
0.098 	1
0.0987 	1
0.0994 	1
0.1001 	1
0.1008 	1
0.1015 	1
0.1022 	1
0.1029 	1
0.1036 	1
0.1043 	1
0.105 	1
0.1057 	1
0.1064 	1
0.1071 	1
0.1078 	1
0.1085 	1
0.1092 	1
0.1099 	1
0.1106 	1
0.1113 	1
0.112 	1
0.1127 	1
0.1134 	1
0.1141 	1
0.1148 	1
0.1155 	1
0.1162 	1
0.1169 	1
0.1176 	1
0.1183 	1
0.119 	1
0.1197 	1
0.1204 	1
0.1211 	1
0.1218 	1
0.1225 	1
0.1232 	1
0.1239 	1
0.1246 	1
0.1253 	1
0.126 	1
0.1267 	1
0.1274 	1
0.1281 	1
0.1288 	1
0.1295 	1
0.1302 	1
0.1309 	1
0.1316 	1
0.1323 	1
0.133 	1
0.1337 	1
0.1344 	1
0.1351 	1
0.1358 	1
0.1365 	1
0.1372 	1
0.1379 	1
0.1386 	1
0.1393 	1
0.14 	1
0.1407 	1
0.1414 	1
0.1421 	1
0.1428 	1
0.1435 	1
0.1442 	1
0.1449 	1
0.1456 	1
0.1463 	1
0.147 	1
0.1477 	1
0.1484 	1
0.1491 	1
0.1498 	1
0.1505 	1
0.1512 	1
0.1519 	1
0.1526 	1
0.1533 	1
0.154 	1
0.1547 	1
0.1554 	1
0.1561 	1
0.1568 	1
0.1575 	1
0.1582 	1
0.1589 	1
0.1596 	1
0.1603 	1
0.161 	1
0.1617 	1
0.1624 	1
0.1631 	1
0.1638 	1
0.1645 	1
0.1652 	1
0.1659 	1
0.1666 	1
0.1673 	1
0.168 	1
0.1687 	1
0.1694 	1
0.1701 	1
0.1708 	1
0.1715 	1
0.1722 	1
0.1729 	1
0.1736 	1
0.1743 	1
0.175 	1
0.1757 	1
0.1764 	1
0.1771 	1
0.1778 	1
0.1785 	1
0.1792 	1
0.1799 	1
0.1806 	1
0.1813 	1
0.182 	1
0.1827 	1
0.1834 	1
0.1841 	1
0.1848 	1
0.1855 	1
0.1862 	1
0.1869 	1
0.1876 	1
0.1883 	1
0.189 	1
0.1897 	1
0.1904 	1
0.1911 	1
0.1918 	1
0.1925 	1
0.1932 	1
0.1939 	1
0.1946 	1
0.1953 	1
0.196 	1
0.1967 	1
0.1974 	1
0.1981 	1
0.1988 	1
0.1995 	1
0.2002 	1
0.2009 	1
0.2016 	1
0.2023 	1
0.203 	1
0.2037 	1
0.2044 	1
0.2051 	1
0.2058 	1
0.2065 	1
0.2072 	1
0.2079 	1
0.2086 	1
0.2093 	1
0.21 	1
0.2107 	1
0.2114 	1
0.2121 	1
0.2128 	1
0.2135 	1
0.2142 	1
0.2149 	1
0.2156 	1
0.2163 	1
0.217 	1
0.2177 	1
0.2184 	1
0.2191 	1
0.2198 	1
0.2205 	1
0.2212 	1
0.2219 	1
0.2226 	1
0.2233 	1
0.224 	1
0.2247 	1
0.2254 	1
0.2261 	1
0.2268 	1
0.2275 	1
0.2282 	1
0.2289 	1
0.2296 	1
0.2303 	0.999999
0.231 	0.999999
0.2317 	0.999996
0.2324 	0.99999
0.2331 	0.999986
0.2338 	0.999985
0.2345 	0.999979
0.2352 	0.999977
0.2359 	0.999981
0.2366 	0.999906
0.2373 	0.999754
0.238 	0.999604
0.2387 	0.999593
0.2394 	0.999436
0.2401 	0.999305
0.2408 	0.99939
0.2415 	0.998668
0.2422 	0.996493
0.2429 	0.994318
0.2436 	0.993807
0.2443 	0.991758
0.245 	0.989225
0.2457 	0.989794
0.2464 	0.986216
0.2471 	0.967432
0.2478 	0.948648
0.2485 	0.94076
0.2492 	0.924413
0.2499 	0.901154
0.2506 	0.895655
0.2513 	0.889768
0.252 	0.840365
0.2527 	0.790961
0.2534 	0.755724
0.2541 	0.706898
0.2548 	0.634641
0.2555 	0.57128
0.2562 	0.511478
0.2569 	0.461619
0.2576 	0.412524
0.2583 	0.36122
0.259 	0.311012
0.2597 	0.267687
0.2604 	0.213625
0.2611 	0.15151
0.2618 	0.123774
0.2625 	0.105413
0.2632 	0.0793967
0.2639 	0.0453215
0.2646 	0.0456227
0.2653 	0.0395658
0.266 	0.0250316
0.2667 	0.0185778
0.2674 	0.0166129
0.2681 	0.0130105
0.2688 	0.00187913
0.2695 	0.00241838
0.2702 	0.00253317
0.2709 	0.00158682
0.2716 	0.0010875
0.2723 	0.00103519
0.273 	0.00096614
0.2737 	8.84298e-05
0.2744 	4.08414e-05
0.2751 	5.20968e-05
0.2758 	3.3219e-05
0.2765 	2.09666e-05
0.2772 	2.06396e-05
0.2779 	2.03126e-05
0.2786 	4.05963e-06
0.2793 	1.65545e-07
0.28 	2.467e-07
0.2807 	1.61251e-07
0.2814 	9.3999e-08
0.2821 	9.34647e-08
0.2828 	9.29303e-08
0.2835 	3.04209e-08
0.2842 	2.01659e-10
0.2849 	3.09115e-10
0.2856 	2.31146e-10
0.2863 	1.30042e-10
0.287 	1.29926e-10
0.2877 	1.2981e-10
0.2884 	6.53478e-11
0.2891 	1.11004e-11
0.2898 	1.1232e-11
0.2905 	1.14843e-11
0.2912 	1.17848e-11
0.2919 	1.17512e-11
0.2926 	1.16919e-11
0.2933 	1.17258e-11
0.294 	1.17447e-11
0.2947 	1.15326e-11
0.2954 	1.14696e-11
0.2961 	1.15185e-11
0.2968 	1.13036e-11
0.2975 	1.10168e-11
0.2982 	1.07949e-11
0.2989 	1.06468e-11
0.2996 	1.02351e-11
0.3003 	9.87014e-12
0.301 	9.56749e-12
0.3017 	9.17761e-12
0.3024 	8.73927e-12
0.3031 	8.30878e-12
0.3038 	7.90802e-12
0.3045 	7.38098e-12
0.3052 	6.83189e-12
0.3059 	6.2277e-12
0.3066 	5.71771e-12
0.3073 	5.30192e-12
0.308 	4.88304e-12
0.3087 	4.33533e-12
0.3094 	3.96199e-12
0.3101 	3.57214e-12
0.3108 	3.0027e-12
0.3115 	2.54958e-12
0.3122 	2.30584e-12
0.3129 	2.0621e-12
0.3136 	1.64045e-12
0.3143 	1.45031e-12
0.315 	1.32987e-12
0.3157 	1.03417e-12
0.3164 	7.83532e-13
0.3171 	6.98088e-13
0.3178 	6.12643e-13
0.3185 	4.26885e-13
0.3192 	3.40672e-13
0.3199 	3.2949e-13
0.3206 	2.51196e-13
0.3213 	1.66869e-13
0.322 	1.49522e-13
0.3227 	1.32176e-13
0.3234 	8.41999e-14
0.3241 	5.15262e-14
0.3248 	5.49034e-14
0.3255 	4.37921e-14
0.3262 	2.68854e-14
0.3269 	2.37198e-14
0.3276 	2.16109e-14
0.3283 	1.41837e-14
0.329 	5.63836e-15
0.3297 	6.60336e-15
0.3304 	5.78127e-15
0.3311 	3.61886e-15
0.3318 	3.00439e-15
0.3325 	2.81207e-15
0.3332 	2.09382e-15
0.3339 	6.3467e-16
0.3346 	7.23054e-16
0.3353 	6.81472e-16
0.336 	4.66602e-16
0.3367 	3.74074e-16
0.3374 	3.4951e-16
0.3381 	2.9694e-16
0.3388 	1.2026e-16
0.3395 	1.20209e-16
0.3402 	1.1219e-16
0.3409 	8.42496e-17
0.3416 	6.74057e-17
0.3423 	6.16574e-17
0.343 	5.54407e-17
0.3437 	3.21013e-17
0.3444 	2.93512e-17
0.3451 	2.73389e-17
0.3458 	2.02498e-17
0.3465 	1.51749e-17
0.3472 	1.37257e-17
0.3479 	1.22764e-17
0.3486 	7.233e-18
0.3493 	6.14867e-18
0.35 	6.27248e-18
0.3507 	4.40409e-18
0.3514 	2.88142e-18
0.3521 	2.62631e-18
0.3528 	2.37121e-18
0.3535 	1.21503e-18
0.3542 	7.82548e-19
0.3549 	9.26334e-19
0.3556 	6.79668e-19
0.3563 	3.88606e-19
0.357 	3.66349e-19
0.3577 	3.44092e-19
0.3584 	1.73636e-19
0.3591 	4.89527e-20
0.3598 	6.90602e-20
0.3605 	5.66609e-20
0.3612 	3.12588e-20
0.3619 	2.87676e-20
0.3626 	2.80386e-20
0.3633 	1.66479e-20
0.364 	1.40871e-21
0.3647 	2.03464e-21
0.3654 	1.86964e-21
0.3661 	1.11145e-21
0.3668 	9.2506e-22
0.3675 	8.94607e-22
0.3682 	6.43032e-22
0.3689 	6.60089e-23
0.3696 	6.10016e-23
0.3703 	5.22819e-23
0.371 	3.86121e-23
0.3717 	3.06425e-23
0.3724 	2.58394e-23
0.3731 	1.99786e-23
0.3738 	9.67508e-24
0.3745 	7.64899e-24
0.3752 	5.76503e-24
0.3759 	4.23642e-24
0.3766 	3.16147e-24
0.3773 	2.54016e-24
0.378 	1.90611e-24
0.3787 	8.59935e-25
0.3794 	6.63296e-25
0.3801 	5.27263e-25
0.3808 	3.62708e-25
0.3815 	2.42545e-25
0.3822 	2.02285e-25
0.3829 	1.62024e-25
0.3836 	4.88628e-26
0.3843 	2.46356e-26
0.385 	2.7182e-26
0.3857 	1.81895e-26
0.3864 	1.09492e-26
0.3871 	1.0133e-26
0.3878 	9.31678e-27
0.3885 	3.13315e-27
0.3892 	3.81858e-28
0.3899 	5.56881e-28
0.3906 	4.10517e-28
0.3913 	2.24649e-28
0.392 	2.21541e-28
0.3927 	2.18433e-28
0.3934 	9.91155e-29
0.3941 	1.69927e-30
0.3948 	2.73661e-30
0.3955 	2.28361e-30
0.3962 	1.23449e-30
0.3969 	1.15824e-30
0.3976 	1.15682e-30
0.3983 	6.73918e-31
0.399 	1.13846e-33
0.3997 	1.91591e-33
0.4004 	1.80441e-33
0.4011 	1.02621e-33
0.4018 	8.59414e-34
0.4025 	8.59352e-34
0.4032 	6.11798e-34
0.4039 	5.5033e-37
0.4046 	6.97649e-37
0.4053 	7.01433e-37
0.406 	5.13836e-37
0.4067 	4.40847e-37
0.4074 	4.31527e-37
0.4081 	4.01802e-37
0.4088 	2.89142e-37
0.4095 	3.42217e-37
0.4102 	3.58255e-37
0.4109 	2.81699e-37
0.4116 	2.40259e-37
0.4123 	2.33932e-37
0.413 	2.26734e-37
0.4137 	1.94329e-37
0.4144 	2.27258e-37
0.4151 	2.51515e-37
0.4158 	1.93585e-37
0.4165 	1.54558e-37
0.4172 	1.49555e-37
0.4179 	1.44552e-37
0.4186 	1.1935e-37
0.4193 	1.33341e-37
0.42 	1.58695e-37
0.4207 	1.18044e-37
0.4214 	8.5401e-38
0.4221 	8.21215e-38
0.4228 	7.88419e-38
0.4235 	6.06908e-38
0.4242 	6.161e-38
0.4249 	7.58979e-38
0.4256 	5.83574e-38
0.4263 	3.70366e-38
0.427 	3.55318e-38
0.4277 	3.40271e-38
0.4284 	2.424e-38
0.4291 	1.97578e-38
0.4298 	2.59588e-38
0.4305 	2.13263e-38
0.4312 	1.23604e-38
0.4319 	1.1343e-38
0.4326 	1.0937e-38
0.4333 	7.53846e-39
0.434 	3.74151e-39
0.4347 	5.45155e-39
0.4354 	4.98693e-39
0.4361 	2.8913e-39
0.4368 	2.40237e-39
0.4375 	2.35161e-39
0.4382 	1.73008e-39
0.4389 	3.42764e-40
0.4396 	5.62763e-40
0.4403 	5.87006e-40
0.441 	3.50242e-40
0.4417 	2.64329e-40
0.4424 	2.62219e-40
0.4431 	2.20071e-40
0.4438 	1.13086e-41
0.4445 	2.04725e-41
0.4452 	2.43536e-41
0.4459 	1.50272e-41
0.4466 	1.03542e-41
0.4473 	1.03344e-41
0.448 	9.97553e-42
0.4487 	7.54571e-43
0.4494 	1.75444e-43
0.4501 	2.36654e-43
0.4508 	1.50662e-43
0.4515 	9.53719e-44
0.4522 	9.53452e-44
0.4529 	9.53185e-44
0.4536 	1.8538e-44
0.4543 	2.45329e-46
0.455 	3.74744e-46
0.4557 	2.45295e-46
0.4564 	1.43586e-46
0.4571 	1.43589e-46
0.4578 	1.43591e-46
0.4585 	4.62513e-47
0.4592 	4.16889e-50
0.4599 	6.54773e-50
0.4606 	4.84856e-50
0.4613 	2.63967e-50
0.462 	2.63979e-50
0.4627 	2.63991e-50
0.4634 	1.18957e-50
0.4641 	2.32671e-54
0.4648 	3.77176e-54
0.4655 	3.15245e-54
0.4662 	1.70739e-54
0.4669 	1.60426e-54
0.4676 	1.60433e-54
0.4683 	9.29052e-55
0.469 	1.30438e-58
0.4697 	2.19305e-58
0.4704 	2.06609e-58
0.4711 	1.1774e-58
0.4718 	9.87012e-59
0.4725 	9.87056e-59
0.4732 	6.98304e-59
0.4739 	7.469e-63
0.4746 	1.3104e-62
0.4753 	1.39089e-62
0.476 	8.27368e-63
0.4767 	6.26133e-63
0.4774 	6.26159e-63
0.4781 	5.23297e-63
0.4788 	4.66281e-67
0.4795 	8.58518e-67
0.4802 	1.0265e-66
0.4809 	6.33844e-67
0.4816 	4.37497e-67
0.4823 	4.37452e-67
0.483 	4.22252e-67
0.4837 	4.51844e-68
0.4844 	3.26354e-68
0.4851 	4.36889e-68
0.4858 	2.80892e-68
0.4865 	1.80531e-68
0.4872 	1.80311e-68
0.4879 	1.80091e-68
0.4886 	1.62818e-68
0.4893 	2.65858e-68
0.49 	4.02242e-68
0.4907 	2.65094e-68
0.4914 	1.57299e-68
0.4921 	1.57125e-68
0.4928 	1.5695e-68
0.4935 	1.43144e-68
0.4942 	2.12887e-68
0.4949 	3.31501e-68
0.4956 	2.46202e-68
0.4963 	1.3543e-68
0.497 	1.35291e-68
0.4977 	1.35153e-68
0.4984 	1.18712e-68
0.4991 	1.51503e-68
0.4998 	2.4382e-68
0.5005 	2.03917e-68
0.5012 	1.11126e-68
0.5019 	1.04418e-68
0.5026 	1.04332e-68
0.5033 	8.87237e-69
0.504 	8.87451e-69
0.5047 	1.48329e-68
0.5054 	1.39675e-68
0.5061 	7.98443e-69
0.5068 	6.69927e-69
0.5075 	6.69529e-69
0.5082 	5.69179e-69
0.5089 	3.92315e-69
0.5096 	6.85051e-69
0.5103 	7.26482e-69
0.511 	4.32839e-69
0.5117 	3.27889e-69
0.5124 	3.27764e-69
0.5131 	2.91214e-69
0.5138 	1.16013e-69
0.5145 	2.1328e-69
0.5152 	2.5491e-69
0.5159 	1.57448e-69
0.5166 	1.08707e-69
0.5173 	1.08685e-69
0.518 	1.05226e-69
0.5187 	2.60168e-70
0.5194 	3.72649e-70
0.5201 	5.02677e-70
0.5208 	3.20428e-70
0.5215 	2.03265e-70
0.5222 	2.03251e-70
0.5229 	2.03237e-70
0.5236 	5.19717e-71
0.5243 	2.72426e-71
0.525 	4.15592e-71
0.5257 	2.72398e-71
0.5264 	1.5989e-71
0.5271 	1.5989e-71
0.5278 	1.5989e-71
0.5285 	5.35862e-72
0.5292 	5.34309e-73
0.5299 	8.15431e-73
0.5306 	6.13127e-73
0.5313 	3.50391e-73
0.532 	3.49404e-73
0.5327 	3.48418e-73
0.5334 	1.51913e-73
0.5341 	-4.98548e-74
0.5348 	-1.35077e-73
0.5355 	-1.01042e-73
0.5362 	-1.93052e-74
0.5369 	-1.53182e-74
0.5376 	-1.73112e-74
0.5383 	-2.04548e-74
0.539 	-8.72711e-74
0.5397 	-2.66403e-73
0.5404 	-2.44777e-73
0.5411 	-7.25834e-74
0.5418 	-3.85965e-74
0.5425 	-4.23003e-74
0.5432 	-4.71091e-74
0.5439 	-1.25973e-73
0.5446 	-4.68213e-73
0.5453 	-5.22578e-73
0.546 	-1.93108e-73
0.5467 	-7.95161e-74
0.5474 	-8.58517e-74
0.5481 	-9.33573e-74
0.5488 	-1.4856e-73
0.5495 	-7.58598e-73
0.5502 	-1.02621e-72
0.5509 	-4.37743e-73
0.5516 	-1.48523e-73
0.5523 	-1.58536e-73
0.553 	-1.69054e-73
0.5537 	-1.89948e-73
0.5544 	-1.14058e-72
0.5551 	-1.87551e-72
0.5558 	-8.87017e-73
0.5565 	-2.56799e-73
0.5572 	-2.71446e-73
0.5579 	-2.86092e-73
0.5586 	-3.16718e-73
0.5593 	-1.5906e-72
0.56 	-3.2031e-72
0.5607 	-1.63917e-72
0.5614 	-4.1461e-73
0.5621 	-4.34347e-73
0.5628 	-4.54084e-73
0.5635 	-4.94002e-73
0.5642 	-2.04748e-72
0.5649 	-4.43836e-72
0.5656 	-2.78572e-72
0.5663 	-6.27084e-73
0.567 	-6.51332e-73
0.5677 	-6.7558e-73
0.5684 	-7.22397e-73
0.5691 	-2.41387e-72
0.5698 	-5.7362e-72
0.5705 	-4.36746e-72
0.5712 	-1.12231e-72
0.5719 	-9.15379e-73
0.5726 	-9.42124e-73
0.5733 	-9.90575e-73
0.574 	-2.57848e-72
0.5747 	-6.89464e-72
0.5754 	-6.32515e-72
0.5761 	-2.09142e-72
0.5768 	-1.20456e-72
0.5775 	-1.23042e-72
0.5782 	-1.2733e-72
0.5789 	-2.45563e-72
0.5796 	-7.69185e-72
0.5803 	-8.47253e-72
0.581 	-3.31247e-72
0.5817 	-1.48309e-72
0.5824 	-1.50402e-72
0.5831 	-1.53452e-72
0.5838 	-2.02405e-72
0.5845 	-7.95766e-72
0.5852 	-1.0517e-71
0.5859 	-4.6406e-72
0.5866 	-1.70867e-72
0.5873 	-1.72107e-72
0.588 	-1.7355e-72
0.5887 	-1.78898e-72
0.5894 	-7.63332e-72
0.5901 	-1.21301e-71
0.5908 	-5.86847e-72
0.5915 	-1.84385e-72
0.5922 	-1.84568e-72
0.5929 	-1.84752e-72
0.5936 	-1.87225e-72
0.5943 	-6.7902e-72
0.595 	-1.30421e-71
0.5957 	-6.78507e-72
0.5964 	-1.86701e-72
0.5971 	-1.85833e-72
0.5978 	-1.84965e-72
0.5985 	-1.84503e-72
0.5992 	-5.60055e-72
0.5999 	-1.14444e-71
0.6006 	-7.23926e-72
0.6013 	-1.77807e-72
0.602 	-1.76087e-72
0.6027 	-1.74367e-72
0.6034 	-1.7173e-72
0.6041 	-4.27801e-72
0.6048 	-9.4315e-72
0.6055 	-7.1805e-72
0.6062 	-1.9677e-72
0.6069 	-1.5745e-72
0.6076 	-1.55197e-72
0.6083 	-1.51448e-72
0.609 	-3.01623e-72
0.6097 	-7.31802e-72
0.6104 	-6.66239e-72
0.6111 	-2.28867e-72
0.6118 	-1.33232e-72
0.6125 	-1.30793e-72
0.6132 	-1.26946e-72
0.6139 	-1.94817e-72
0.6146 	-5.35829e-72
0.6153 	-5.81367e-72
0.616 	-2.32938e-72
0.6167 	-1.07001e-72
0.6174 	-1.04667e-72
0.6181 	-1.01443e-72
0.6188 	-1.13413e-72
0.6195 	-3.70946e-72
0.6202 	-4.79365e-72
0.6209 	-2.14994e-72
0.6216 	-8.17947e-73
0.6223 	-7.97602e-73
0.623 	-7.7497e-73
0.6237 	-7.10375e-73
0.6244 	-2.43137e-72
0.6251 	-3.75054e-72
0.6258 	-1.83442e-72
0.6265 	-5.96779e-73
0.6272 	-5.80353e-73
0.6279 	-5.63927e-73
0.6286 	-5.12165e-73
0.6293 	-1.50987e-72
0.63 	-2.79478e-72
0.6307 	-1.46452e-72
0.6314 	-4.16668e-73
0.6321 	-4.04246e-73
0.6328 	-3.91824e-73
0.6335 	-3.55173e-73
0.6342 	-8.88055e-73
0.6349 	-1.74146e-72
0.6356 	-1.10321e-72
0.6363 	-2.79074e-73
0.637 	-2.70204e-73
0.6377 	-2.61334e-73
0.6384 	-2.37448e-73
0.6391 	-4.93838e-73
0.6398 	-1.03956e-72
0.6405 	-7.89003e-73
0.6412 	-2.19929e-73
0.6419 	-1.73701e-73
0.6426 	-1.67685e-73
0.6433 	-1.53343e-73
0.644 	-2.58599e-73
0.6447 	-5.95286e-73
0.6454 	-5.38329e-73
0.6461 	-1.86139e-73
0.6468 	-1.07613e-73
0.6475 	-1.03719e-73
0.6482 	-9.58246e-74
0.6489 	-1.26511e-73
0.6496 	-3.27281e-73
0.6503 	-3.51746e-73
0.651 	-1.41138e-73
0.6517 	-6.43708e-74
0.6524 	-6.19555e-74
0.6531 	-5.80315e-74
0.6538 	-5.69286e-74
0.6545 	-1.72828e-73
0.6552 	-2.20788e-73
0.6559 	-9.89012e-74
0.6566 	-3.72392e-74
0.6573 	-3.57995e-74
0.658 	-3.41023e-74
0.6587 	-2.78677e-74
0.6594 	-8.7647e-74
0.6601 	-1.33473e-73
0.6608 	-6.51093e-74
0.6615 	-2.08663e-74
0.6622 	-2.00392e-74
0.6629 	-1.92122e-74
0.6636 	-1.57663e-74
0.6643 	-4.26503e-74
0.665 	-7.78764e-74
0.6657 	-4.06706e-74
0.6664 	-1.13395e-74
0.6671 	-1.08806e-74
0.6678 	-1.04218e-74
0.6685 	-8.68711e-75
0.6692 	-1.98789e-74
0.6699 	-3.84661e-74
0.6706 	-2.42635e-74
0.6713 	-5.98334e-75
0.672 	-5.73703e-75
0.6727 	-5.49072e-75
0.6734 	-4.66486e-75
0.6741 	-8.84674e-75
0.6748 	-1.83831e-74
0.6755 	-1.38884e-74
0.6762 	-3.78121e-75
0.6769 	-2.9404e-75
0.6776 	-2.81227e-75
0.6783 	-2.44269e-75
0.679 	-3.73933e-75
0.6797 	-8.5003e-75
0.6804 	-7.6531e-75
0.6811 	-2.59978e-75
0.6818 	-1.46616e-75
0.6825 	-1.4015e-75
0.6832 	-1.24785e-75
0.6839 	-1.48758e-75
0.6846 	-3.80189e-75
0.6853 	-4.07022e-75
0.686 	-1.61057e-75
0.6867 	-7.11764e-76
0.6874 	-6.8006e-76
0.6881 	-6.22134e-76
0.6888 	-5.47812e-76
0.6895 	-1.64379e-75
0.6902 	-2.09343e-75
0.6909 	-9.27254e-76
0.6916 	-3.36622e-76
0.6923 	-3.21511e-76
0.693 	-3.02806e-76
0.6937 	-2.22316e-76
0.6944 	-6.8629e-76
0.6951 	-1.04291e-75
0.6958 	-5.04071e-76
0.6965 	-1.5596e-76
0.6972 	-1.51144e-76
0.6979 	-1.46328e-76
0.6986 	-1.22069e-76
0.6993 	-3.72684e-76
0.7 	-6.98779e-76
