0 	1
0.0007 	1
0.0014 	1
0.0021 	1
0.0028 	1
0.0035 	1
0.0042 	1
0.0049 	1
0.0056 	1
0.0063 	1
0.007 	1
0.0077 	1
0.0084 	1
0.0091 	1
0.0098 	1
0.0105 	1
0.0112 	1
0.0119 	1
0.0126 	1
0.0133 	1
0.014 	1
0.0147 	1
0.0154 	1
0.0161 	1
0.0168 	1
0.0175 	1
0.0182 	1
0.0189 	1
0.0196 	1
0.0203 	1
0.021 	1
0.0217 	1
0.0224 	1
0.0231 	1
0.0238 	1
0.0245 	1
0.0252 	1
0.0259 	1
0.0266 	1
0.0273 	1
0.028 	1
0.0287 	1
0.0294 	1
0.0301 	1
0.0308 	1
0.0315 	1
0.0322 	1
0.0329 	1
0.0336 	1
0.0343 	1
0.035 	1
0.0357 	1
0.0364 	1
0.0371 	1
0.0378 	1
0.0385 	1
0.0392 	1
0.0399 	1
0.0406 	1
0.0413 	1
0.042 	1
0.0427 	1
0.0434 	1
0.0441 	1
0.0448 	1
0.0455 	1
0.0462 	1
0.0469 	1
0.0476 	1
0.0483 	1
0.049 	1
0.0497 	1
0.0504 	1
0.0511 	1
0.0518 	1
0.0525 	1
0.0532 	1
0.0539 	1
0.0546 	1
0.0553 	1
0.056 	1
0.0567 	1
0.0574 	1
0.0581 	1
0.0588 	1
0.0595 	1
0.0602 	1
0.0609 	1
0.0616 	1
0.0623 	1
0.063 	1
0.0637 	1
0.0644 	1
0.0651 	1
0.0658 	1
0.0665 	1
0.0672 	1
0.0679 	1
0.0686 	1
0.0693 	1
0.07 	1
0.0707 	1
0.0714 	1
0.0721 	1
0.0728 	1
0.0735 	1
0.0742 	1
0.0749 	1
0.0756 	1
0.0763 	1
0.077 	1
0.0777 	1
0.0784 	1
0.0791 	1
0.0798 	1
0.0805 	1
0.0812 	1
0.0819 	1
0.0826 	1
0.0833 	1
0.084 	1
0.0847 	1
0.0854 	1
0.0861 	1
0.0868 	1
0.0875 	1
0.0882 	1
0.0889 	1
0.0896 	1
0.0903 	1
0.091 	1
0.0917 	1
0.0924 	1
0.0931 	1
0.0938 	1
0.0945 	1
0.0952 	1
0.0959 	1
0.0966 	1
0.0973 	1
0.098 	1
0.0987 	1
0.0994 	1
0.1001 	1
0.1008 	1
0.1015 	1
0.1022 	1
0.1029 	1
0.1036 	1
0.1043 	1
0.105 	1
0.1057 	1
0.1064 	1
0.1071 	1
0.1078 	1
0.1085 	1
0.1092 	1
0.1099 	1
0.1106 	1
0.1113 	1
0.112 	1
0.1127 	1
0.1134 	1
0.1141 	1
0.1148 	1
0.1155 	1
0.1162 	1
0.1169 	1
0.1176 	1
0.1183 	1
0.119 	1
0.1197 	1
0.1204 	1
0.1211 	1
0.1218 	1
0.1225 	1
0.1232 	1
0.1239 	1
0.1246 	1
0.1253 	1
0.126 	1
0.1267 	1
0.1274 	1
0.1281 	1
0.1288 	1
0.1295 	1
0.1302 	1
0.1309 	1
0.1316 	1
0.1323 	1
0.133 	1
0.1337 	1
0.1344 	1
0.1351 	1
0.1358 	1
0.1365 	1
0.1372 	1
0.1379 	1
0.1386 	1
0.1393 	1
0.14 	1
0.1407 	1
0.1414 	1
0.1421 	1
0.1428 	1
0.1435 	1
0.1442 	1
0.1449 	1
0.1456 	1
0.1463 	1
0.147 	1
0.1477 	1
0.1484 	1
0.1491 	1
0.1498 	1
0.1505 	1
0.1512 	1
0.1519 	1
0.1526 	1
0.1533 	1
0.154 	1
0.1547 	1
0.1554 	1
0.1561 	1
0.1568 	1
0.1575 	1
0.1582 	1
0.1589 	1
0.1596 	1
0.1603 	1
0.161 	1
0.1617 	1
0.1624 	1
0.1631 	1
0.1638 	1
0.1645 	1
0.1652 	1
0.1659 	1
0.1666 	1
0.1673 	1
0.168 	1
0.1687 	1
0.1694 	1
0.1701 	1
0.1708 	1
0.1715 	1
0.1722 	1
0.1729 	1
0.1736 	1
0.1743 	1
0.175 	1
0.1757 	1
0.1764 	1
0.1771 	1
0.1778 	1
0.1785 	1
0.1792 	1
0.1799 	1
0.1806 	1
0.1813 	1
0.182 	0.999999
0.1827 	0.999999
0.1834 	0.999998
0.1841 	0.999998
0.1848 	0.999997
0.1855 	0.999997
0.1862 	0.999996
0.1869 	0.999994
0.1876 	0.999991
0.1883 	0.999987
0.189 	0.999982
0.1897 	0.999976
0.1904 	0.99997
0.1911 	0.999965
0.1918 	0.999945
0.1925 	0.999918
0.1932 	0.999873
0.1939 	0.999824
0.1946 	0.99976
0.1953 	0.999702
0.196 	0.999653
0.1967 	0.999415
0.1974 	0.999072
0.1981 	0.998335
0.1988 	0.997572
0.1995 	0.996536
0.2002 	0.995605
0.2009 	0.994938
0.2016 	0.990332
0.2023 	0.981788
0.203 	0.966539
0.2037 	0.950048
0.2044 	0.926239
0.2051 	0.90253
0.2058 	0.882803
0.2065 	0.85252
0.2072 	0.803234
0.2079 	0.74868
0.2086 	0.691892
0.2093 	0.611873
0.21 	0.52552
0.2107 	0.441143
0.2114 	0.362007
0.2121 	0.302091
0.2128 	0.246147
0.2135 	0.193319
0.2142 	0.156217
0.2149 	0.127852
0.2156 	0.0970096
0.2163 	0.0665333
0.217 	0.0461819
0.2177 	0.0291359
0.2184 	0.0166743
0.2191 	0.00966759
0.2198 	0.00811585
0.2205 	0.00614032
0.2212 	0.00399526
0.2219 	0.0024333
0.2226 	0.00115981
0.2233 	0.000520806
0.224 	0.000106357
0.2247 	9.61185e-05
0.2254 	7.67513e-05
0.2261 	5.05372e-05
0.2268 	2.8656e-05
0.2275 	1.00187e-05
0.2282 	4.48951e-06
0.2289 	1.45621e-07
0.2296 	1.47735e-07
0.2303 	1.3056e-07
0.231 	8.76684e-08
0.2317 	4.84004e-08
0.2324 	1.11456e-08
0.2331 	5.29448e-09
0.2338 	2.42481e-11
0.2345 	2.77513e-11
0.2352 	2.84218e-11
0.2359 	2.20102e-11
0.2366 	1.57766e-11
0.2373 	9.72108e-12
0.238 	8.52195e-12
0.2387 	8.15993e-12
0.2394 	8.13774e-12
0.2401 	8.14063e-12
0.2408 	8.13706e-12
0.2415 	8.12008e-12
0.2422 	8.07895e-12
0.2429 	8.01572e-12
0.2436 	7.94351e-12
0.2443 	7.8425e-12
0.245 	7.73364e-12
0.2457 	7.62057e-12
0.2464 	7.49176e-12
0.2471 	7.30522e-12
0.2478 	7.08196e-12
0.2485 	6.831e-12
0.2492 	6.53336e-12
0.2499 	6.20979e-12
0.2506 	5.88764e-12
0.2513 	5.56623e-12
0.252 	5.25121e-12
0.2527 	4.92562e-12
0.2534 	4.58592e-12
0.2541 	4.24982e-12
0.2548 	3.91733e-12
0.2555 	3.57308e-12
0.2562 	3.22412e-12
0.2569 	2.93428e-12
0.2576 	2.65918e-12
0.2583 	2.40942e-12
0.259 	2.18218e-12
0.2597 	1.99547e-12
0.2604 	1.79299e-12
0.2611 	1.57868e-12
0.2618 	1.39731e-12
0.2625 	1.23115e-12
0.2632 	1.1015e-12
0.2639 	9.80644e-13
0.2646 	8.9205e-13
0.2653 	7.95024e-13
0.266 	6.86755e-13
0.2667 	5.92708e-13
0.2674 	5.0667e-13
0.2681 	4.46012e-13
0.2688 	3.86889e-13
0.2695 	3.47741e-13
0.2702 	3.05801e-13
0.2709 	2.56878e-13
0.2716 	2.13985e-13
0.2723 	1.77121e-13
0.273 	1.50519e-13
0.2737 	1.25549e-13
0.2744 	1.11495e-13
0.2751 	9.77297e-14
0.2758 	8.06486e-14
0.2765 	6.52678e-14
0.2772 	5.29477e-14
0.2779 	4.36719e-14
0.2786 	3.55714e-14
0.2793 	3.11241e-14
0.28 	2.76731e-14
0.2807 	2.30037e-14
0.2814 	1.86224e-14
0.2821 	1.52975e-14
0.2828 	1.25975e-14
0.2835 	1.03502e-14
0.2842 	8.9451e-15
0.2849 	8.00796e-15
0.2856 	6.78125e-15
0.2863 	5.53337e-15
0.287 	4.63759e-15
0.2877 	3.84384e-15
0.2884 	3.18066e-15
0.2891 	2.702e-15
0.2898 	2.40786e-15
0.2905 	2.04739e-15
0.2912 	1.6604e-15
0.2919 	1.38889e-15
0.2926 	1.14186e-15
0.2933 	9.31737e-16
0.294 	7.64932e-16
0.2947 	6.76103e-16
0.2954 	5.73184e-16
0.2961 	4.59697e-16
0.2968 	3.7746e-16
0.2975 	3.05628e-16
0.2982 	2.43988e-16
0.2989 	1.90688e-16
0.2996 	1.67966e-16
0.3003 	1.42638e-16
0.301 	1.13837e-16
0.3017 	9.19471e-17
0.3024 	7.39307e-17
0.3031 	5.8257e-17
0.3038 	4.33361e-17
0.3045 	3.82008e-17
0.3052 	3.26683e-17
0.3059 	2.61429e-17
0.3066 	2.08886e-17
0.3073 	1.69055e-17
0.308 	1.32447e-17
0.3087 	9.63083e-18
0.3094 	8.3325e-18
0.3101 	7.16973e-18
0.3108 	5.75156e-18
0.3115 	4.53752e-18
0.3122 	3.69091e-18
0.3129 	2.88036e-18
0.3136 	2.08304e-18
0.3143 	1.72637e-18
0.315 	1.48989e-18
0.3157 	1.19381e-18
0.3164 	9.24072e-19
0.3171 	7.50919e-19
0.3178 	5.8181e-19
0.3185 	4.15509e-19
0.3192 	3.26783e-19
0.3199 	2.81155e-19
0.3206 	2.26032e-19
0.3213 	1.71049e-19
0.322 	1.38471e-19
0.3227 	1.06398e-19
0.3234 	7.49446e-20
0.3241 	5.53378e-20
0.3248 	4.7578e-20
0.3255 	3.84398e-20
0.3262 	2.87503e-20
0.3269 	2.29568e-20
0.3276 	1.75259e-20
0.3283 	1.22371e-20
0.329 	8.41962e-21
0.3297 	7.25086e-21
0.3304 	5.90209e-21
0.3311 	4.41832e-21
0.3318 	3.44451e-21
0.3325 	2.61628e-21
0.3332 	1.82064e-21
0.3339 	1.16152e-21
0.3346 	1.00301e-21
0.3353 	8.24125e-22
0.336 	6.18077e-22
0.3367 	4.70161e-22
0.3374 	3.54726e-22
0.3381 	2.46646e-22
0.3388 	1.44901e-22
0.3395 	1.25533e-22
0.3402 	1.04292e-22
0.3409 	7.83715e-23
0.3416 	5.81192e-23
0.3423 	4.35351e-23
0.343 	3.0163e-23
0.3437 	1.6951e-23
0.3444 	1.40571e-23
0.3451 	1.18397e-23
0.3458 	8.91953e-24
0.3465 	6.45025e-24
0.3472 	4.79256e-24
0.3479 	3.29986e-24
0.3486 	1.86459e-24
0.3493 	1.40038e-24
0.35 	1.20101e-24
0.3507 	9.08508e-25
0.3514 	6.42433e-25
0.3521 	4.73273e-25
0.3528 	3.23311e-25
0.3535 	1.86127e-25
0.3542 	1.2644e-25
0.3549 	1.09808e-25
0.3556 	8.47539e-26
0.3563 	5.90514e-26
0.357 	4.31721e-26
0.3577 	2.9256e-26
0.3584 	1.76543e-26
0.3591 	1.12124e-26
0.3598 	9.93043e-27
0.3605 	7.90604e-27
0.3612 	5.58468e-27
0.3619 	4.03021e-27
0.3626 	2.71948e-27
0.3633 	1.8058e-27
0.364 	1.17958e-27
0.3647 	1.07078e-27
0.3654 	8.89921e-28
0.3661 	6.55022e-28
0.3668 	4.72777e-28
0.3675 	3.20487e-28
0.3682 	2.4116e-28
0.3689 	1.75882e-28
0.3696 	1.62118e-28
0.3703 	1.40117e-28
0.371 	1.07132e-28
0.3717 	7.8742e-29
0.3724 	5.34566e-29
0.3731 	4.355e-29
0.3738 	3.41497e-29
0.3745 	3.13305e-29
0.3752 	2.75509e-29
0.3759 	2.13703e-29
0.3766 	1.57663e-29
0.3773 	1.07389e-29
0.378 	8.57915e-30
0.3787 	6.76223e-30
0.3794 	6.0217e-30
0.3801 	5.28332e-30
0.3808 	4.06109e-30
0.3815 	2.92839e-30
0.3822 	1.95686e-30
0.3829 	1.44045e-30
0.3836 	1.0743e-30
0.3843 	9.05833e-31
0.385 	7.91286e-31
0.3857 	5.97467e-31
0.3864 	4.13993e-31
0.3871 	2.68447e-31
0.3878 	1.75589e-31
0.3885 	1.16369e-31
0.3892 	8.79603e-32
0.3899 	7.66689e-32
0.3906 	5.81798e-32
0.3913 	3.88922e-32
0.392 	2.48185e-32
0.3927 	1.44899e-32
0.3934 	8.40385e-33
0.3941 	5.07562e-33
0.3948 	4.50527e-33
0.3955 	3.50153e-33
0.3962 	2.32444e-33
0.3969 	1.46606e-33
0.3976 	7.89739e-34
0.3983 	4.37062e-34
0.399 	2.03915e-34
0.3997 	1.85925e-34
0.4004 	1.50361e-34
0.4011 	1.01618e-34
0.4018 	6.28092e-35
0.4025 	3.10255e-35
0.4032 	1.81389e-35
0.4039 	7.8956e-36
0.4046 	7.34478e-36
0.4053 	6.2007e-36
0.406 	4.26559e-36
0.4067 	2.6022e-36
0.4074 	1.13768e-36
0.4081 	7.0392e-37
0.4088 	2.99914e-37
0.4095 	2.82771e-37
0.4102 	2.48885e-37
0.4109 	1.73143e-37
0.4116 	1.04885e-37
0.4123 	4.41088e-38
0.413 	2.45255e-38
0.4137 	9.37056e-39
0.4144 	7.98843e-39
0.4151 	7.39722e-39
0.4158 	5.1947e-39
0.4165 	3.13716e-39
0.4172 	1.34062e-39
0.4179 	6.08262e-40
0.4186 	2.09339e-40
0.4193 	1.23707e-40
0.42 	1.2352e-40
0.4207 	8.77169e-41
0.4214 	5.31645e-41
0.4221 	2.32e-41
0.4228 	8.36742e-42
0.4235 	2.81279e-42
0.4242 	8.65215e-43
0.4249 	9.21587e-43
0.4256 	6.96331e-43
0.4263 	4.26636e-43
0.427 	1.89431e-43
0.4277 	5.03644e-44
0.4284 	1.83051e-44
0.4291 	2.47836e-45
0.4298 	2.88443e-45
0.4305 	2.36845e-45
0.4312 	1.48366e-45
0.4319 	6.70681e-46
0.4326 	1.12624e-46
0.4333 	4.55399e-47
0.434 	2.68917e-48
0.4347 	3.45934e-48
0.4354 	3.14789e-48
0.4361 	2.02523e-48
0.4368 	9.49063e-49
0.4375 	8.41794e-50
0.4382 	3.75241e-50
0.4389 	9.50022e-52
0.4396 	1.34115e-51
0.4403 	1.36541e-51
0.441 	9.00534e-52
0.4417 	4.45063e-52
0.4424 	1.8509e-53
0.4431 	8.97544e-54
0.4438 	1.26929e-55
0.4445 	1.8387e-55
0.4452 	2.05465e-55
0.4459 	1.38697e-55
0.4466 	7.2946e-56
0.4473 	8.21319e-57
0.448 	1.37354e-57
0.4487 	1.06643e-58
0.4494 	2.31909e-59
0.4501 	2.84298e-59
0.4508 	1.95941e-59
0.4515 	1.08541e-59
0.4522 	2.2866e-60
0.4529 	1.97374e-61
0.4536 	3.6467e-62
0.4543 	2.72439e-63
0.455 	3.66324e-63
0.4557 	2.57239e-63
0.4564 	1.4887e-63
0.4571 	4.31264e-64
0.4578 	2.67168e-65
0.4585 	7.20095e-66
0.4592 	3.01163e-67
0.4599 	4.10378e-67
0.4606 	3.17192e-67
0.4613 	1.90556e-67
0.462 	6.76094e-68
0.4627 	3.47239e-69
0.4634 	1.17568e-69
0.4641 	3.32205e-71
0.4648 	4.5023e-71
0.4655 	3.81255e-71
0.4662 	2.3748e-71
0.4669 	1.00284e-71
0.4676 	8.99584e-73
0.4683 	3.59044e-73
0.469 	1.18906e-74
0.4697 	1.2835e-74
0.4704 	1.12351e-74
0.4711 	7.72682e-75
0.4718 	5.59411e-75
0.4725 	3.76768e-75
0.4732 	1.67291e-75
0.4739 	-1.44777e-76
0.4746 	-9.46486e-76
0.4753 	-1.06289e-75
0.476 	-2.6554e-76
0.4767 	1.86379e-77
0.4774 	1.71828e-77
0.4781 	7.65556e-78
0.4788 	-1.37271e-76
0.4795 	-2.04243e-75
0.4802 	-2.85937e-75
0.4809 	-9.55732e-76
0.4816 	-4.09874e-78
0.4823 	-4.47108e-78
0.483 	-5.34292e-78
0.4837 	-6.25764e-78
0.4844 	-2.5378e-75
0.4851 	-4.48531e-75
0.4858 	-1.76055e-75
0.4865 	-9.01159e-78
0.4872 	-9.2871e-78
0.4879 	-9.89608e-78
0.4886 	-1.05995e-77
0.4893 	-2.43568e-75
0.49 	-5.52195e-75
0.4907 	-2.43643e-75
0.4914 	-1.21172e-77
0.4921 	-1.22248e-77
0.4928 	-1.24417e-77
0.4935 	-1.27207e-77
0.4942 	-1.98368e-75
0.4949 	-5.04948e-75
0.4956 	-2.85972e-75
0.4963 	-1.30108e-77
0.497 	-1.2996e-77
0.4977 	-1.29686e-77
0.4984 	-1.29282e-77
0.4991 	-1.44329e-75
0.4998 	-4.30405e-75
0.5005 	-3.07785e-75
0.5012 	-2.16864e-76
0.5019 	-1.24527e-77
0.5026 	-1.23571e-77
0.5033 	-1.21891e-77
0.504 	-9.47089e-76
0.5047 	-3.56512e-75
0.5054 	-3.19099e-75
0.5061 	-5.72742e-76
0.5068 	-1.16594e-77
0.5075 	-1.16019e-77
0.5082 	-1.14514e-77
0.5089 	-5.23782e-76
0.5096 	-2.91522e-75
0.5103 	-3.25684e-75
0.511 	-8.65366e-76
0.5117 	-1.12701e-77
0.5124 	-1.1272e-77
0.5131 	-1.11832e-77
0.5138 	-1.66402e-76
0.5145 	-2.34066e-75
0.5152 	-3.27251e-75
0.5159 	-1.09837e-75
0.5166 	-1.13219e-77
0.5173 	-1.13774e-77
0.518 	-1.13238e-77
0.5187 	-1.12618e-77
0.5194 	-1.81461e-75
0.5201 	-3.20183e-75
0.5208 	-1.25985e-75
0.5215 	-1.14965e-77
0.5222 	-1.16538e-77
0.5229 	-1.16146e-77
0.5236 	-1.15223e-77
0.5243 	-1.34308e-75
0.525 	-3.03782e-75
0.5257 	-1.34301e-75
0.5264 	-1.14042e-77
0.5271 	-1.15497e-77
0.5278 	-1.15059e-77
0.5285 	-1.13582e-77
0.5292 	-9.50185e-76
0.5299 	-2.41067e-75
0.5306 	-1.36724e-75
0.5313 	-1.08451e-77
0.532 	-1.08587e-77
0.5327 	-1.07773e-77
0.5334 	-1.06022e-77
0.5341 	-6.4145e-76
0.5348 	-1.90332e-75
0.5355 	-1.36231e-75
0.5362 	-1.00138e-76
0.5369 	-9.96045e-78
0.5376 	-9.88987e-78
0.5383 	-9.73657e-78
0.539 	-4.02657e-76
0.5397 	-1.50311e-75
0.5404 	-1.34579e-75
0.5411 	-2.45133e-76
0.5418 	-9.30066e-78
0.5425 	-9.30105e-78
0.5432 	-9.1989e-78
0.5439 	-2.1577e-76
0.5446 	-1.18015e-75
0.5453 	-1.31789e-75
0.546 	-3.53457e-76
0.5467 	-9.10414e-78
0.5474 	-9.22558e-78
0.5481 	-9.17465e-78
0.5488 	-6.92238e-77
0.5495 	-9.10585e-76
0.5502 	-1.27119e-75
0.5509 	-4.29887e-76
0.5516 	-9.37001e-78
0.5523 	-9.63626e-78
0.553 	-9.64122e-78
0.5537 	-9.62851e-78
0.5544 	-6.81131e-76
0.5551 	-1.19769e-75
0.5558 	-4.74687e-76
0.5565 	-1.00423e-77
0.5572 	-1.04507e-77
0.5579 	-1.0545e-77
0.5586 	-1.05582e-77
0.5593 	-4.86284e-76
0.56 	-1.09175e-75
0.5607 	-4.86496e-76
0.5614 	-1.10435e-77
0.5621 	-1.15294e-77
0.5628 	-1.17077e-77
0.5635 	-1.17225e-77
0.5642 	-3.25786e-76
0.5649 	-8.14321e-76
0.5656 	-4.65497e-76
0.5663 	-1.20239e-77
0.567 	-1.23874e-77
0.5677 	-1.25522e-77
0.5684 	-1.2527e-77
0.5691 	-2.01081e-76
0.5698 	-5.78215e-76
0.5705 	-4.16538e-76
0.5712 	-3.93372e-77
0.5719 	-1.24411e-77
0.5726 	-1.2438e-77
0.5733 	-1.23432e-77
0.574 	-1.11536e-76
0.5747 	-3.89449e-76
0.5754 	-3.49554e-76
0.5761 	-7.13052e-77
0.5768 	-1.1455e-77
0.5775 	-1.11977e-77
0.5782 	-1.10399e-77
0.5789 	-5.28914e-77
0.5796 	-2.48778e-76
0.5803 	-2.76538e-76
0.581 	-8.01287e-77
0.5817 	-9.66242e-78
0.5824 	-9.1911e-78
0.5831 	-9.00397e-78
0.5838 	-1.83045e-77
0.5845 	-1.50947e-76
0.5852 	-2.0763e-76
0.5859 	-7.44159e-77
0.5866 	-7.53482e-78
0.5873 	-6.98664e-78
0.588 	-6.78548e-78
0.5887 	-6.60514e-78
0.5894 	-8.71088e-77
0.5901 	-1.48971e-76
0.5908 	-6.17463e-77
0.5915 	-5.4992e-78
0.5922 	-5.01233e-78
0.5929 	-4.79468e-78
0.5936 	-4.64372e-78
0.5943 	-4.77959e-77
0.595 	-1.02758e-76
0.5957 	-4.7388e-77
0.5964 	-3.80152e-78
0.5971 	-3.42206e-78
0.5978 	-3.21745e-78
0.5985 	-3.10312e-78
0.5992 	-2.4852e-77
0.5999 	-5.8747e-77
0.6006 	-3.42825e-77
0.6013 	-2.51418e-78
0.602 	-2.24315e-78
0.6027 	-2.07073e-78
0.6034 	-1.99024e-78
0.6041 	-1.21436e-77
0.6048 	-3.25307e-77
0.6055 	-2.36494e-77
0.6062 	-3.06066e-78
0.6069 	-1.42106e-78
0.6076 	-1.28729e-78
0.6083 	-1.23368e-78
0.609 	-5.47804e-78
0.6097 	-1.74588e-77
0.6104 	-1.56725e-77
0.6111 	-3.5611e-78
0.6118 	-8.74168e-79
0.6125 	-7.7679e-79
0.6132 	-7.42605e-79
0.6139 	-2.19162e-78
0.6146 	-9.07905e-78
0.6153 	-1.0028e-77
0.616 	-3.05908e-78
0.6167 	-5.23872e-79
0.6174 	-4.5651e-79
0.6181 	-4.35479e-79
0.6188 	-6.9286e-79
0.6195 	-4.56961e-78
0.6202 	-6.21701e-78
0.6209 	-2.29106e-78
0.6216 	-3.06532e-79
0.6223 	-2.63422e-79
0.623 	-2.49324e-79
0.6237 	-2.36778e-79
0.6244 	-2.22104e-78
0.6251 	-3.74396e-78
0.6258 	-1.57724e-78
0.6265 	-1.75381e-79
0.6272 	-1.50275e-79
0.6279 	-1.39554e-79
0.6286 	-1.32272e-79
0.6293 	-1.03853e-78
0.63 	-2.19393e-78
0.6307 	-1.02203e-78
0.6314 	-9.82013e-80
0.6321 	-8.3942e-80
0.6328 	-7.64232e-80
0.6335 	-7.23003e-80
0.6342 	-4.64232e-79
0.6349 	-1.0762e-78
0.6356 	-6.3119e-79
0.6363 	-5.38277e-80
0.637 	-4.59185e-80
0.6377 	-4.09523e-80
0.6384 	-3.86721e-80
0.6391 	-1.9629e-79
0.6398 	-5.13805e-79
0.6405 	-3.74142e-79
0.6412 	-5.16074e-80
0.6419 	-2.45884e-80
0.6426 	-2.14639e-80
0.6433 	-2.0231e-80
0.644 	-7.70197e-80
0.6447 	-2.38247e-79
0.6454 	-2.13686e-79
0.6461 	-4.97819e-80
0.6468 	-1.28757e-80
0.6475 	-1.09912e-80
0.6482 	-1.03393e-80
0.6489 	-2.69694e-80
0.6496 	-1.06966e-79
0.6503 	-1.17797e-79
0.651 	-3.64055e-80
0.6517 	-6.58269e-81
0.6524 	-5.48951e-81
0.6531 	-5.15274e-81
0.6538 	-7.60426e-81
0.6545 	-4.63036e-80
0.6552 	-6.26864e-80
0.6559 	-2.3278e-80
0.6566 	-3.27821e-81
0.6573 	-2.68714e-81
0.658 	-2.49796e-81
0.6587 	-2.3282e-81
0.6594 	-1.92163e-80
0.6601 	-3.21663e-80
0.6608 	-1.36149e-80
0.6615 	-1.58569e-81
0.6622 	-1.29649e-81
0.6629 	-1.1744e-81
0.6636 	-1.09111e-81
0.6643 	-7.58878e-81
0.665 	-1.58813e-80
0.6657 	-7.41995e-81
0.6664 	-7.42428e-82
0.6671 	-6.05441e-82
0.6678 	-5.33595e-82
0.6685 	-4.93949e-82
0.6692 	-2.82359e-81
0.6699 	-6.46951e-81
0.6706 	-3.79801e-81
0.6713 	-3.35177e-82
0.672 	-2.72622e-82
0.6727 	-2.33414e-82
0.6734 	-2.15178e-82
0.6741 	-9.76188e-82
0.6748 	-2.51644e-81
0.6755 	-1.83125e-81
0.6762 	-2.55876e-82
0.6769 	-1.17894e-82
0.6776 	-9.79163e-83
0.6783 	-8.98469e-83
0.679 	-3.06983e-82
0.6797 	-9.29489e-82
0.6804 	-8.31958e-82
0.6811 	-1.94398e-82
0.6818 	-4.87634e-83
0.6825 	-3.92377e-83
0.6832 	-3.58189e-83
0.6839 	-8.4488e-83
0.6846 	-3.24146e-82
0.6853 	-3.55747e-82
0.686 	-1.09938e-82
0.6867 	-1.92139e-83
0.6874 	-1.49645e-83
0.6881 	-1.35842e-83
0.6888 	-1.85549e-83
0.6895 	-1.0609e-82
0.6902 	-1.42924e-82
0.6909 	-5.30042e-83
0.6916 	-7.1846e-84
0.6923 	-5.46485e-84
0.693 	-4.8845e-84
0.6937 	-4.35578e-84
0.6944 	-3.2381e-83
0.6951 	-5.38432e-83
0.6958 	-2.27483e-83
0.6965 	-2.59579e-84
0.6972 	-2.13971e-84
0.6979 	-1.93916e-84
0.6986 	-1.79702e-84
0.6993 	-1.37352e-83
0.7 	-2.89679e-83
