0 	1
0.0007 	1
0.0014 	1
0.0021 	1
0.0028 	1
0.0035 	1
0.0042 	1
0.0049 	1
0.0056 	1
0.0063 	1
0.007 	1
0.0077 	1
0.0084 	1
0.0091 	1
0.0098 	1
0.0105 	1
0.0112 	1
0.0119 	1
0.0126 	1
0.0133 	1
0.014 	1
0.0147 	1
0.0154 	1
0.0161 	1
0.0168 	1
0.0175 	1
0.0182 	1
0.0189 	1
0.0196 	1
0.0203 	1
0.021 	1
0.0217 	1
0.0224 	1
0.0231 	1
0.0238 	1
0.0245 	1
0.0252 	1
0.0259 	1
0.0266 	1
0.0273 	1
0.028 	1
0.0287 	1
0.0294 	1
0.0301 	1
0.0308 	1
0.0315 	1
0.0322 	1
0.0329 	1
0.0336 	1
0.0343 	1
0.035 	1
0.0357 	1
0.0364 	1
0.0371 	1
0.0378 	1
0.0385 	1
0.0392 	1
0.0399 	1
0.0406 	1
0.0413 	1
0.042 	1
0.0427 	1
0.0434 	1
0.0441 	1
0.0448 	1
0.0455 	1
0.0462 	1
0.0469 	1
0.0476 	1
0.0483 	1
0.049 	1
0.0497 	1
0.0504 	1
0.0511 	1
0.0518 	1
0.0525 	1
0.0532 	1
0.0539 	1
0.0546 	1
0.0553 	1
0.056 	1
0.0567 	1
0.0574 	1
0.0581 	1
0.0588 	1
0.0595 	1
0.0602 	1
0.0609 	1
0.0616 	1
0.0623 	1
0.063 	1
0.0637 	1
0.0644 	1
0.0651 	1
0.0658 	1
0.0665 	1
0.0672 	1
0.0679 	1
0.0686 	1
0.0693 	1
0.07 	1
0.0707 	1
0.0714 	1
0.0721 	1
0.0728 	1
0.0735 	1
0.0742 	1
0.0749 	1
0.0756 	1
0.0763 	1
0.077 	1
0.0777 	1
0.0784 	1
0.0791 	1
0.0798 	1
0.0805 	1
0.0812 	1
0.0819 	1
0.0826 	1
0.0833 	1
0.084 	1
0.0847 	1
0.0854 	1
0.0861 	1
0.0868 	1
0.0875 	1
0.0882 	1
0.0889 	1
0.0896 	1
0.0903 	1
0.091 	1
0.0917 	1
0.0924 	1
0.0931 	1
0.0938 	1
0.0945 	1
0.0952 	1
0.0959 	1
0.0966 	1
0.0973 	1
0.098 	1
0.0987 	1
0.0994 	1
0.1001 	1
0.1008 	1
0.1015 	1
0.1022 	1
0.1029 	1
0.1036 	1
0.1043 	1
0.105 	1
0.1057 	1
0.1064 	1
0.1071 	1
0.1078 	1
0.1085 	1
0.1092 	1
0.1099 	1
0.1106 	1
0.1113 	1
0.112 	1
0.1127 	1
0.1134 	1
0.1141 	1
0.1148 	1
0.1155 	1
0.1162 	1
0.1169 	1
0.1176 	1
0.1183 	1
0.119 	1
0.1197 	1
0.1204 	1
0.1211 	1
0.1218 	1
0.1225 	1
0.1232 	1
0.1239 	1
0.1246 	1
0.1253 	1
0.126 	1
0.1267 	1
0.1274 	1
0.1281 	1
0.1288 	1
0.1295 	1
0.1302 	1
0.1309 	1
0.1316 	1
0.1323 	1
0.133 	1
0.1337 	1
0.1344 	1
0.1351 	1
0.1358 	1
0.1365 	1
0.1372 	1
0.1379 	1
0.1386 	1
0.1393 	1
0.14 	1
0.1407 	1
0.1414 	1
0.1421 	1
0.1428 	1
0.1435 	1
0.1442 	1
0.1449 	1
0.1456 	1
0.1463 	1
0.147 	1
0.1477 	1
0.1484 	1
0.1491 	1
0.1498 	1
0.1505 	1
0.1512 	1
0.1519 	1
0.1526 	1
0.1533 	1
0.154 	1
0.1547 	1
0.1554 	1
0.1561 	1
0.1568 	1
0.1575 	1
0.1582 	1
0.1589 	1
0.1596 	1
0.1603 	1
0.161 	1
0.1617 	1
0.1624 	1
0.1631 	1
0.1638 	1
0.1645 	1
0.1652 	1
0.1659 	1
0.1666 	1
0.1673 	1
0.168 	1
0.1687 	1
0.1694 	1
0.1701 	1
0.1708 	1
0.1715 	1
0.1722 	1
0.1729 	1
0.1736 	1
0.1743 	1
0.175 	1
0.1757 	1
0.1764 	1
0.1771 	1
0.1778 	1
0.1785 	1
0.1792 	1
0.1799 	1
0.1806 	1
0.1813 	1
0.182 	1
0.1827 	1
0.1834 	1
0.1841 	1
0.1848 	1
0.1855 	1
0.1862 	1
0.1869 	1
0.1876 	1
0.1883 	1
0.189 	1
0.1897 	1
0.1904 	1
0.1911 	1
0.1918 	1
0.1925 	1
0.1932 	1
0.1939 	1
0.1946 	1
0.1953 	1
0.196 	1
0.1967 	1
0.1974 	1
0.1981 	1
0.1988 	1
0.1995 	1
0.2002 	1
0.2009 	1
0.2016 	1
0.2023 	1
0.203 	1
0.2037 	1
0.2044 	1
0.2051 	1
0.2058 	1
0.2065 	1
0.2072 	1
0.2079 	1
0.2086 	1
0.2093 	1
0.21 	1
0.2107 	1
0.2114 	1
0.2121 	1
0.2128 	1
0.2135 	1
0.2142 	1
0.2149 	1
0.2156 	1
0.2163 	1
0.217 	1
0.2177 	1
0.2184 	1
0.2191 	1
0.2198 	1
0.2205 	1
0.2212 	1
0.2219 	1
0.2226 	1
0.2233 	1
0.224 	1
0.2247 	1
0.2254 	1
0.2261 	1
0.2268 	1
0.2275 	1
0.2282 	1
0.2289 	1
0.2296 	1
0.2303 	1
0.231 	1
0.2317 	1
0.2324 	1
0.2331 	1
0.2338 	1
0.2345 	1
0.2352 	1
0.2359 	1
0.2366 	1
0.2373 	1
0.238 	1
0.2387 	1
0.2394 	1
0.2401 	1
0.2408 	1
0.2415 	1
0.2422 	1
0.2429 	1
0.2436 	1
0.2443 	1
0.245 	1
0.2457 	1
0.2464 	1
0.2471 	1
0.2478 	1
0.2485 	1
0.2492 	1
0.2499 	1
0.2506 	1
0.2513 	0.999999
0.252 	0.999989
0.2527 	0.999978
0.2534 	0.999966
0.2541 	0.999949
0.2548 	0.999926
0.2555 	0.999905
0.2562 	0.999883
0.2569 	0.998937
0.2576 	0.997912
0.2583 	0.996753
0.259 	0.995238
0.2597 	0.993084
0.2604 	0.990953
0.2611 	0.988839
0.2618 	0.975168
0.2625 	0.958345
0.2632 	0.9403
0.2639 	0.918985
0.2646 	0.886114
0.2653 	0.853384
0.266 	0.820839
0.2667 	0.771635
0.2674 	0.713175
0.2681 	0.653954
0.2688 	0.592652
0.2695 	0.507287
0.2702 	0.422022
0.2709 	0.337006
0.2716 	0.26811
0.2723 	0.215333
0.273 	0.163366
0.2737 	0.111884
0.2744 	0.0903357
0.2751 	0.0710993
0.2758 	0.0519164
0.2765 	0.0358333
0.2772 	0.0253298
0.2779 	0.0153719
0.2786 	0.00599953
0.2793 	0.00344478
0.28 	0.00274943
0.2807 	0.00205471
0.2814 	0.00142542
0.2821 	0.00103604
0.2828 	0.000663294
0.2835 	0.000322918
0.2842 	0.000178772
0.2849 	0.000143645
0.2856 	0.000108762
0.2863 	7.50065e-05
0.287 	5.53757e-05
0.2877 	3.62341e-05
0.2884 	1.90887e-05
0.2891 	9.54817e-06
0.2898 	7.6125e-06
0.2905 	5.69794e-06
0.2912 	3.79184e-06
0.2919 	2.69258e-06
0.2926 	1.66262e-06
0.2933 	7.59571e-07
0.294 	1.66824e-07
0.2947 	1.32634e-07
0.2954 	9.9039e-08
0.2961 	6.58906e-08
0.2968 	4.82605e-08
0.2975 	3.48626e-08
0.2982 	1.5663e-08
0.2989 	1.29625e-10
0.2996 	1.13552e-10
0.3003 	9.20305e-11
0.301 	6.32447e-11
0.3017 	4.84795e-11
0.3024 	4.15033e-11
0.3031 	2.34984e-11
0.3038 	3.72563e-12
0.3045 	4.20424e-12
0.3052 	4.68595e-12
0.3059 	5.17537e-12
0.3066 	5.54153e-12
0.3073 	5.78441e-12
0.308 	6.03791e-12
0.3087 	6.29777e-12
0.3094 	6.32884e-12
0.3101 	6.34554e-12
0.3108 	6.38157e-12
0.3115 	6.34962e-12
0.3122 	6.19527e-12
0.3129 	6.06313e-12
0.3136 	5.95478e-12
0.3143 	5.69659e-12
0.315 	5.39752e-12
0.3157 	5.11426e-12
0.3164 	4.82119e-12
0.3171 	4.49214e-12
0.3178 	4.16789e-12
0.3185 	3.85295e-12
0.3192 	3.50833e-12
0.3199 	3.14721e-12
0.3206 	2.79638e-12
0.3213 	2.45339e-12
0.322 	2.19002e-12
0.3227 	1.92444e-12
0.3234 	1.64984e-12
0.3241 	1.41808e-12
0.3248 	1.22917e-12
0.3255 	1.04166e-12
0.3262 	8.54717e-13
0.3269 	7.3245e-13
0.3276 	6.14487e-13
0.3283 	4.84809e-13
0.329 	3.80032e-13
0.3297 	3.20079e-13
0.3304 	2.59906e-13
0.3311 	1.9957e-13
0.3318 	1.61899e-13
0.3325 	1.30409e-13
0.3332 	9.21317e-14
0.3339 	5.93881e-14
0.3346 	4.93531e-14
0.3353 	3.91079e-14
0.336 	2.85824e-14
0.3367 	2.18705e-14
0.3374 	1.72771e-14
0.3381 	1.10469e-14
0.3388 	4.74858e-15
0.3395 	3.97333e-15
0.3402 	3.16022e-15
0.3409 	2.25245e-15
0.3416 	1.63659e-15
0.3423 	1.31264e-15
0.343 	8.11253e-16
0.3437 	2.03745e-16
0.3444 	1.40118e-16
0.3451 	1.16623e-16
0.3458 	8.28868e-17
0.3465 	5.78582e-17
0.3472 	4.85021e-17
0.3479 	3.17773e-17
0.3486 	7.16276e-18
0.3493 	1.77268e-18
0.35 	1.62578e-18
0.3507 	1.1661e-18
0.3514 	7.85236e-19
0.3521 	6.93388e-19
0.3528 	5.07272e-19
0.3535 	1.38254e-19
0.3542 	6.54216e-21
0.3549 	6.66921e-21
0.3556 	5.05556e-21
0.3563 	3.27001e-21
0.357 	3.02129e-21
0.3577 	2.49426e-21
0.3584 	8.34913e-22
0.3591 	5.64127e-24
0.3598 	6.45629e-24
0.3605 	5.32418e-24
0.3612 	3.41322e-24
0.3619 	3.14156e-24
0.3626 	2.90753e-24
0.3633 	1.13824e-24
0.364 	9.2526e-28
0.3647 	1.16575e-27
0.3654 	1.06128e-27
0.3661 	6.98106e-28
0.3668 	6.07632e-28
0.3675 	5.91529e-28
0.3682 	2.73199e-28
0.3689 	7.9188e-32
0.3696 	1.00644e-31
0.3703 	9.90539e-32
0.371 	6.67368e-32
0.3717 	5.42775e-32
0.3724 	5.28501e-32
0.3731 	2.8734e-32
0.3738 	6.83002e-36
0.3745 	8.7244e-36
0.3752 	9.25343e-36
0.3759 	6.36908e-36
0.3766 	4.86191e-36
0.3773 	4.73192e-36
0.378 	2.95627e-36
0.3787 	1.97658e-37
0.3794 	7.57767e-40
0.3801 	8.64325e-40
0.3808 	6.06416e-40
0.3815 	4.36378e-40
0.3822 	4.24504e-40
0.3829 	2.99285e-40
0.3836 	5.28601e-41
0.3843 	6.53886e-44
0.385 	8.0151e-44
0.3857 	5.72137e-44
0.3864 	3.89626e-44
0.3871 	3.78935e-44
0.3878 	2.97315e-44
0.3885 	7.82763e-45
0.3892 	5.56964e-48
0.3899 	6.86898e-48
0.3906 	5.32418e-48
0.3913 	3.44287e-48
0.392 	3.34896e-48
0.3927 	2.89255e-48
0.3934 	9.64462e-49
0.3941 	4.66395e-52
0.3948 	5.80249e-52
0.3955 	4.87519e-52
0.3962 	3.12155e-52
0.3969 	2.92185e-52
0.3976 	2.75415e-52
0.3983 	1.07793e-52
0.399 	3.82212e-56
0.3997 	4.806e-56
0.4004 	4.37273e-56
0.4011 	2.87661e-56
0.4018 	2.50361e-56
0.4025 	2.43691e-56
0.4032 	1.12524e-56
0.4039 	3.06294e-60
0.4046 	3.90005e-60
0.4053 	3.84132e-60
0.406 	2.58816e-60
0.4067 	2.1058e-60
0.4074 	2.05166e-60
0.4081 	1.11538e-60
0.4088 	2.39983e-64
0.4095 	3.09695e-64
0.4102 	3.30089e-64
0.4109 	2.27191e-64
0.4116 	1.73584e-64
0.4123 	1.69268e-64
0.413 	1.05806e-64
0.4137 	7.07166e-66
0.4144 	2.41033e-68
0.4151 	2.77995e-68
0.4158 	1.95025e-68
0.4165 	1.40479e-68
0.4172 	1.37097e-68
0.4179 	9.68017e-69
0.4186 	1.70952e-69
0.4193 	1.84439e-72
0.42 	2.30158e-72
0.4207 	1.64271e-72
0.4214 	1.11941e-72
0.4221 	1.09321e-72
0.4228 	8.59991e-73
0.4235 	2.26401e-73
0.4242 	1.38958e-76
0.4249 	1.751e-76
0.4256 	1.36029e-76
0.4263 	8.79656e-77
0.427 	8.59586e-77
0.4277 	7.45121e-77
0.4284 	2.48435e-77
0.4291 	1.03579e-80
0.4298 	1.31896e-80
0.4305 	1.1136e-80
0.4312 	7.12821e-81
0.4319 	6.70036e-81
0.4326 	6.34297e-81
0.4333 	2.48246e-81
0.434 	7.63918e-85
0.4347 	9.83774e-85
0.4354 	9.01632e-85
0.4361 	5.92992e-85
0.4368 	5.17819e-85
0.4375 	5.06319e-85
0.4382 	2.33826e-85
0.4389 	5.58471e-89
0.4396 	7.28234e-89
0.4403 	7.23976e-89
0.441 	4.87692e-89
0.4417 	3.97772e-89
0.4424 	3.89164e-89
0.4431 	2.11722e-89
0.4438 	4.05262e-93
0.4445 	5.35788e-93
0.4452 	5.77562e-93
0.4459 	3.97451e-93
0.4466 	3.04192e-93
0.4473 	2.97783e-93
0.448 	1.86366e-93
0.4487 	1.2453e-94
0.4494 	3.9108e-97
0.4501 	4.57046e-97
0.4508 	3.20664e-97
0.4515 	2.31297e-97
0.4522 	2.26557e-97
0.4529 	1.60238e-97
0.4536 	2.8296e-98
0.4543 	-9.37775e-102
0.455 	-4.95035e-101
0.4557 	-1.20449e-101
0.4564 	1.73278e-101
0.4571 	1.70529e-101
0.4578 	1.34627e-101
0.4585 	3.47438e-102
0.4592 	-1.00211e-101
0.4599 	-2.5465e-101
0.4606 	-1.44264e-101
0.4613 	-7.60103e-104
0.462 	-5.1176e-104
0.4627 	-3.11098e-104
0.4634 	-3.02914e-104
0.4641 	-2.40147e-102
0.4648 	-7.14467e-102
0.4655 	-5.10986e-102
0.4662 	-3.63849e-103
0.4669 	-1.73838e-104
0.4676 	-9.74636e-105
0.4683 	-9.26259e-105
0.469 	-5.06361e-103
0.4697 	-1.89912e-102
0.4704 	-1.69967e-102
0.4711 	-3.06056e-103
0.4718 	-5.48963e-105
0.4725 	-3.02028e-105
0.4732 	-2.67302e-105
0.4739 	-8.66555e-104
0.4746 	-4.79113e-103
0.4753 	-5.35073e-103
0.476 	-1.4237e-103
0.4767 	-1.65695e-105
0.4774 	-9.36629e-106
0.4781 	-7.39232e-106
0.4788 	-8.30055e-105
0.4795 	-1.14703e-103
0.4802 	-1.60285e-103
0.4809 	-5.38145e-104
0.4816 	-4.79297e-106
0.4823 	-2.78396e-106
0.483 	-1.96458e-106
0.4837 	-1.85164e-106
0.4844 	-2.60102e-104
0.4851 	-4.58737e-104
0.4858 	-1.80433e-104
0.4865 	-1.3316e-106
0.4872 	-7.94215e-107
0.4879 	-5.02933e-107
0.4886 	-4.73345e-107
0.4893 	-5.56392e-105
0.49 	-1.25859e-104
0.4907 	-5.55936e-105
0.4914 	-3.56022e-107
0.4921 	-2.17786e-107
0.4928 	-1.24259e-107
0.4935 	-1.168e-107
0.4942 	-1.11378e-105
0.4949 	-2.82858e-105
0.4956 	-1.60276e-105
0.4963 	-9.17585e-108
0.497 	-5.74909e-108
0.4977 	-2.96848e-108
0.4984 	-2.78717e-108
0.4991 	-2.05507e-106
0.4998 	-6.11131e-106
0.5005 	-4.37104e-106
0.5012 	-3.12154e-107
0.5019 	-1.46327e-108
0.5026 	-6.86735e-109
0.5033 	-6.44148e-109
0.504 	-3.38454e-107
0.5047 	-1.26887e-106
0.5054 	-1.1356e-106
0.5061 	-2.04588e-107
0.5068 	-3.59622e-109
0.5075 	-1.69661e-109
0.5082 	-1.44395e-109
0.5089 	-4.57627e-108
0.5096 	-2.52943e-107
0.5103 	-2.82482e-107
0.511 	-7.51684e-108
0.5117 	-8.54672e-110
0.5124 	-4.28479e-110
0.5131 	-3.14343e-110
0.5138 	-3.49639e-109
0.5145 	-4.8325e-108
0.5152 	-6.75291e-108
0.5159 	-2.26716e-108
0.5166 	-1.96683e-110
0.5173 	-1.0391e-110
0.518 	-6.65337e-111
0.5187 	-6.19711e-111
0.5194 	-8.82128e-109
0.5201 	-1.55586e-108
0.5208 	-6.11911e-109
0.5215 	-4.38826e-111
0.5222 	-2.4265e-111
0.5229 	-1.37064e-111
0.5236 	-1.27581e-111
0.5243 	-1.53076e-109
0.525 	-3.46303e-109
0.5257 	-1.52953e-109
0.5264 	-9.50381e-112
0.5271 	-5.46922e-112
0.5278 	-2.75068e-112
0.5285 	-2.5589e-112
0.5292 	-2.50319e-110
0.5299 	-6.35833e-110
0.5306 	-3.60258e-110
0.5313 	-2.00001e-112
0.532 	-1.19224e-112
0.5327 	-5.38248e-113
0.5334 	-5.00481e-113
0.5341 	-3.79699e-111
0.5348 	-1.12947e-110
0.5355 	-8.07807e-111
0.5362 	-5.7567e-112
0.5369 	-2.51806e-113
0.5376 	-1.02767e-113
0.5383 	-9.55172e-114
0.539 	-5.17025e-112
0.5397 	-1.93927e-111
0.5404 	-1.73559e-111
0.5411 	-3.12466e-112
0.5418 	-5.16021e-114
0.5425 	-2.16171e-114
0.5432 	-1.78026e-114
0.5439 	-5.81001e-113
0.5446 	-3.21429e-112
0.5453 	-3.58979e-112
0.546 	-9.54881e-113
0.5467 	-1.02749e-114
0.5474 	-4.70643e-115
0.5481 	-3.24208e-115
0.5488 	-3.70168e-114
0.5495 	-5.13117e-113
0.5502 	-7.17078e-113
0.5509 	-2.40688e-113
0.5516 	-1.99011e-115
0.5523 	-9.80198e-116
0.553 	-5.77304e-116
0.5537 	-5.32994e-116
0.5544 	-7.86362e-114
0.5551 	-1.38711e-113
0.5558 	-5.45454e-114
0.5565 	-3.75369e-116
0.5572 	-1.96355e-116
0.5579 	-1.00561e-116
0.5586 	-9.28269e-117
0.5593 	-1.15059e-114
0.56 	-2.60339e-114
0.5607 	-1.14972e-114
0.5614 	-6.9008e-117
0.5621 	-3.79805e-117
0.5628 	-1.7146e-117
0.5635 	-1.58256e-117
0.5642 	-1.59324e-115
0.5649 	-4.04776e-115
0.5656 	-2.29329e-115
0.5663 	-1.2377e-117
0.567 	-7.11485e-118
0.5677 	-2.86282e-118
0.5684 	-2.64219e-118
0.5691 	-2.05439e-116
0.5698 	-6.11258e-116
0.5705 	-4.37165e-116
0.5712 	-3.11074e-117
0.5719 	-1.29369e-118
0.5726 	-4.68321e-119
0.5733 	-4.32229e-119
0.574 	-2.38721e-117
0.5747 	-8.95693e-117
0.5754 	-8.01621e-117
0.5761 	-1.44263e-117
0.5768 	-2.28757e-119
0.5775 	-8.66997e-120
0.5782 	-6.931e-120
0.5789 	-2.29722e-118
0.5796 	-1.27156e-117
0.5803 	-1.42013e-117
0.581 	-3.7769e-118
0.5817 	-3.93956e-120
0.5824 	-1.67599e-120
0.5831 	-1.08992e-120
0.5838 	-1.25701e-119
0.5845 	-1.74484e-118
0.5852 	-2.43849e-118
0.5859 	-8.18416e-119
0.5866 	-6.6163e-121
0.5873 	-3.08032e-121
0.588 	-1.68153e-121
0.5887 	-1.54161e-121
0.5894 	-2.30632e-119
0.5901 	-4.06843e-119
0.5908 	-1.59977e-119
0.5915 	-1.08485e-121
0.5922 	-5.43074e-122
0.5929 	-2.54617e-122
0.5936 	-2.33474e-122
0.5943 	-2.92032e-120
0.595 	-6.60797e-120
0.5957 	-2.91821e-120
0.5964 	-1.73828e-122
0.5971 	-9.23805e-123
0.5978 	-3.78566e-123
0.5985 	-3.47214e-123
0.5992 	-3.51074e-121
0.5999 	-8.91966e-121
0.6006 	-5.0535e-121
0.6013 	-2.72441e-123
0.602 	-1.52238e-123
0.6027 	-5.52835e-124
0.6034 	-5.07185e-124
0.6041 	-3.94245e-122
0.6048 	-1.17306e-121
0.6055 	-8.38964e-122
0.6062 	-5.97128e-123
0.6069 	-2.43759e-124
0.6076 	-7.93333e-125
0.6083 	-7.28049e-125
0.609 	-4.00207e-123
0.6097 	-1.50159e-122
0.6104 	-1.34389e-122
0.6111 	-2.41889e-123
0.6118 	-3.80105e-125
0.6125 	-1.32077e-125
0.6132 	-1.02725e-125
0.6139 	-3.37437e-124
0.6146 	-1.8676e-123
0.6153 	-2.08582e-123
0.616 	-5.54801e-124
0.6167 	-5.78216e-126
0.6174 	-2.31182e-126
0.6181 	-1.42529e-126
0.6188 	-1.62317e-125
0.6195 	-2.25183e-124
0.6202 	-3.147e-124
0.6209 	-1.05631e-124
0.6216 	-8.59398e-127
0.6223 	-3.82004e-127
0.623 	-1.94523e-127
0.6237 	-1.77303e-127
0.6244 	-2.62252e-125
0.6251 	-4.62609e-125
0.6258 	-1.81921e-125
0.6265 	-1.24944e-127
0.6272 	-6.03588e-128
0.6279 	-2.61215e-128
0.6286 	-2.38201e-128
0.6293 	-2.93379e-126
0.63 	-6.63803e-126
0.6307 	-2.93172e-126
0.6314 	-1.77865e-128
0.6321 	-9.19112e-129
0.6328 	-3.45247e-129
0.6335 	-3.14982e-129
0.6342 	-3.12399e-127
0.6349 	-7.93624e-127
0.6356 	-4.49661e-127
0.6363 	-2.48149e-129
0.637 	-1.35576e-129
0.6377 	-4.49212e-130
0.6384 	-4.10031e-130
0.6391 	-3.11505e-128
0.6398 	-9.26713e-128
0.6405 	-6.62808e-128
0.6412 	-4.7257e-129
0.6419 	-1.94408e-130
0.6426 	-5.75537e-131
0.6433 	-5.256e-131
0.644 	-2.81432e-129
0.6447 	-1.05563e-128
0.6454 	-9.44787e-129
0.6461 	-1.70154e-129
0.6468 	-2.71713e-131
0.6475 	-8.75384e-132
0.6482 	-6.63625e-132
0.6489 	-2.11713e-130
0.6496 	-1.17106e-129
0.6503 	-1.30788e-129
0.651 	-3.47999e-130
0.6517 	-3.70891e-132
0.6524 	-1.40694e-132
0.6531 	-8.25452e-133
0.6538 	-9.11567e-132
0.6545 	-1.26194e-130
0.6552 	-1.76351e-130
0.6559 	-5.9208e-131
0.6566 	-4.95209e-133
0.6573 	-2.11809e-133
0.658 	-1.01187e-133
0.6587 	-9.17425e-134
0.6594 	-1.31633e-131
0.6601 	-2.32177e-131
0.6608 	-9.13205e-132
0.6615 	-6.47662e-134
0.6622 	-3.03886e-134
0.6629 	-1.22305e-134
0.6636 	-1.10963e-134
0.6643 	-1.32203e-132
0.665 	-2.9908e-132
0.6657 	-1.3211e-132
0.6664 	-8.30857e-135
0.6671 	-4.19744e-135
0.6678 	-1.45883e-135
0.6685 	-1.32449e-135
0.6692 	-1.26747e-133
0.6699 	-3.21925e-133
0.6706 	-1.82419e-133
0.6713 	-1.0471e-135
0.672 	-5.62088e-136
0.6727 	-1.72042e-136
0.6734 	-1.56337e-136
0.6741 	-1.14328e-134
0.6748 	-3.40017e-134
0.6755 	-2.43203e-134
0.6762 	-1.7388e-135
0.6769 	-7.34234e-137
0.6776 	-2.01334e-137
0.6783 	-1.83168e-137
0.679 	-9.41989e-136
0.6797 	-3.53157e-135
0.6804 	-3.1608e-135
0.6811 	-5.69768e-136
0.6818 	-9.42013e-138
0.6825 	-2.88199e-138
0.6832 	-2.14645e-138
0.6839 	-6.56378e-137
0.6846 	-3.62702e-136
0.6853 	-4.05069e-136
0.686 	-1.07837e-136
0.6867 	-1.19925e-138
0.6874 	-4.44687e-139
0.6881 	-2.55516e-139
0.6888 	-2.7043e-138
0.6895 	-3.73021e-137
0.6902 	-5.21242e-137
0.6909 	-1.75068e-137
0.6916 	-1.54196e-139
0.6923 	-6.602e-140
0.693 	-3.171e-140
0.6937 	-2.88784e-140
0.6944 	-3.92595e-138
0.6951 	-6.92352e-138
0.6958 	-2.72404e-138
0.6965 	-2.05799e-140
0.6972 	-9.904e-141
0.6979 	-4.27056e-141
0.6986 	-3.92047e-141
0.6993 	-3.59733e-141
0.7 	-3.28154e-141
