0 	1
0.0007 	1
0.0014 	1
0.0021 	1
0.0028 	1
0.0035 	1
0.0042 	1
0.0049 	1
0.0056 	1
0.0063 	1
0.007 	1
0.0077 	1
0.0084 	1
0.0091 	1
0.0098 	1
0.0105 	1
0.0112 	1
0.0119 	1
0.0126 	1
0.0133 	1
0.014 	1
0.0147 	1
0.0154 	1
0.0161 	1
0.0168 	1
0.0175 	1
0.0182 	1
0.0189 	1
0.0196 	1
0.0203 	1
0.021 	1
0.0217 	1
0.0224 	1
0.0231 	1
0.0238 	1
0.0245 	1
0.0252 	1
0.0259 	1
0.0266 	1
0.0273 	1
0.028 	1
0.0287 	1
0.0294 	1
0.0301 	1
0.0308 	1
0.0315 	1
0.0322 	1
0.0329 	1
0.0336 	1
0.0343 	1
0.035 	1
0.0357 	1
0.0364 	1
0.0371 	1
0.0378 	1
0.0385 	1
0.0392 	1
0.0399 	1
0.0406 	1
0.0413 	1
0.042 	1
0.0427 	1
0.0434 	1
0.0441 	1
0.0448 	1
0.0455 	1
0.0462 	1
0.0469 	1
0.0476 	1
0.0483 	1
0.049 	1
0.0497 	1
0.0504 	1
0.0511 	1
0.0518 	1
0.0525 	1
0.0532 	1
0.0539 	1
0.0546 	1
0.0553 	1
0.056 	1
0.0567 	1
0.0574 	1
0.0581 	1
0.0588 	1
0.0595 	1
0.0602 	1
0.0609 	1
0.0616 	1
0.0623 	1
0.063 	1
0.0637 	1
0.0644 	1
0.0651 	1
0.0658 	1
0.0665 	1
0.0672 	1
0.0679 	1
0.0686 	1
0.0693 	1
0.07 	1
0.0707 	1
0.0714 	1
0.0721 	1
0.0728 	1
0.0735 	1
0.0742 	1
0.0749 	1
0.0756 	1
0.0763 	1
0.077 	1
0.0777 	1
0.0784 	1
0.0791 	1
0.0798 	1
0.0805 	1
0.0812 	1
0.0819 	1
0.0826 	1
0.0833 	1
0.084 	1
0.0847 	1
0.0854 	1
0.0861 	1
0.0868 	1
0.0875 	1
0.0882 	1
0.0889 	1
0.0896 	1
0.0903 	1
0.091 	1
0.0917 	1
0.0924 	1
0.0931 	1
0.0938 	1
0.0945 	1
0.0952 	1
0.0959 	1
0.0966 	1
0.0973 	1
0.098 	1
0.0987 	1
0.0994 	1
0.1001 	1
0.1008 	1
0.1015 	1
0.1022 	1
0.1029 	1
0.1036 	1
0.1043 	1
0.105 	1
0.1057 	1
0.1064 	1
0.1071 	1
0.1078 	1
0.1085 	1
0.1092 	1
0.1099 	1
0.1106 	1
0.1113 	1
0.112 	1
0.1127 	1
0.1134 	1
0.1141 	1
0.1148 	1
0.1155 	1
0.1162 	1
0.1169 	1
0.1176 	1
0.1183 	1
0.119 	1
0.1197 	1
0.1204 	1
0.1211 	1
0.1218 	1
0.1225 	1
0.1232 	1
0.1239 	1
0.1246 	1
0.1253 	1
0.126 	1
0.1267 	1
0.1274 	1
0.1281 	1
0.1288 	1
0.1295 	1
0.1302 	1
0.1309 	1
0.1316 	1
0.1323 	1
0.133 	1
0.1337 	1
0.1344 	1
0.1351 	1
0.1358 	1
0.1365 	1
0.1372 	1
0.1379 	1
0.1386 	1
0.1393 	1
0.14 	1
0.1407 	1
0.1414 	1
0.1421 	1
0.1428 	1
0.1435 	1
0.1442 	1
0.1449 	1
0.1456 	1
0.1463 	1
0.147 	1
0.1477 	1
0.1484 	1
0.1491 	1
0.1498 	1
0.1505 	1
0.1512 	1
0.1519 	1
0.1526 	1
0.1533 	1
0.154 	1
0.1547 	1
0.1554 	1
0.1561 	1
0.1568 	1
0.1575 	1
0.1582 	1
0.1589 	1
0.1596 	1
0.1603 	1
0.161 	1
0.1617 	1
0.1624 	1
0.1631 	1
0.1638 	1
0.1645 	1
0.1652 	1
0.1659 	1
0.1666 	1
0.1673 	1
0.168 	1
0.1687 	1
0.1694 	1
0.1701 	1
0.1708 	1
0.1715 	1
0.1722 	1
0.1729 	1
0.1736 	1
0.1743 	1
0.175 	1
0.1757 	1
0.1764 	1
0.1771 	1
0.1778 	1
0.1785 	1
0.1792 	1
0.1799 	1
0.1806 	1
0.1813 	1
0.182 	1
0.1827 	1
0.1834 	1
0.1841 	1
0.1848 	1
0.1855 	1
0.1862 	1
0.1869 	1
0.1876 	1
0.1883 	1
0.189 	1
0.1897 	1
0.1904 	1
0.1911 	1
0.1918 	1
0.1925 	1
0.1932 	1
0.1939 	1
0.1946 	1
0.1953 	1
0.196 	1
0.1967 	1
0.1974 	1
0.1981 	1
0.1988 	1
0.1995 	1
0.2002 	1
0.2009 	1
0.2016 	1
0.2023 	1
0.203 	1
0.2037 	1
0.2044 	1
0.2051 	1
0.2058 	1
0.2065 	1
0.2072 	1
0.2079 	1
0.2086 	1
0.2093 	1
0.21 	1
0.2107 	1
0.2114 	1
0.2121 	1
0.2128 	1
0.2135 	1
0.2142 	1
0.2149 	1
0.2156 	1
0.2163 	1
0.217 	1
0.2177 	1
0.2184 	1
0.2191 	1
0.2198 	1
0.2205 	1
0.2212 	1
0.2219 	1
0.2226 	1
0.2233 	1
0.224 	1
0.2247 	1
0.2254 	1
0.2261 	1
0.2268 	1
0.2275 	1
0.2282 	1
0.2289 	1
0.2296 	1
0.2303 	1
0.231 	1
0.2317 	1
0.2324 	1
0.2331 	1
0.2338 	1
0.2345 	1
0.2352 	1
0.2359 	1
0.2366 	1
0.2373 	1
0.238 	1
0.2387 	1
0.2394 	1
0.2401 	1
0.2408 	1
0.2415 	1
0.2422 	1
0.2429 	1
0.2436 	1
0.2443 	1
0.245 	1
0.2457 	1
0.2464 	1
0.2471 	1
0.2478 	0.999999
0.2485 	0.999999
0.2492 	0.999999
0.2499 	0.999999
0.2506 	0.999998
0.2513 	0.999998
0.252 	0.999995
0.2527 	0.999993
0.2534 	0.999991
0.2541 	0.999988
0.2548 	0.999983
0.2555 	0.999979
0.2562 	0.999976
0.2569 	0.999935
0.2576 	0.999899
0.2583 	0.999873
0.259 	0.999833
0.2597 	0.999767
0.2604 	0.99971
0.2611 	0.99966
0.2618 	0.998954
0.2625 	0.998187
0.2632 	0.997725
0.2639 	0.997085
0.2646 	0.995789
0.2653 	0.994661
0.266 	0.993756
0.2667 	0.981324
0.2674 	0.963449
0.2681 	0.9518
0.2688 	0.938869
0.2695 	0.909288
0.2702 	0.880842
0.2709 	0.855233
0.2716 	0.813305
0.2723 	0.755059
0.273 	0.701639
0.2737 	0.64827
0.2744 	0.564594
0.2751 	0.479075
0.2758 	0.396488
0.2765 	0.325315
0.2772 	0.274687
0.2779 	0.218381
0.2786 	0.161039
0.2793 	0.12881
0.28 	0.103429
0.2807 	0.0777073
0.2814 	0.0551698
0.2821 	0.0443056
0.2828 	0.029725
0.2835 	0.0135656
0.2842 	0.00695801
0.2849 	0.00565684
0.2856 	0.00421027
0.2863 	0.00280916
0.287 	0.00231416
0.2877 	0.00154577
0.2884 	0.000560731
0.2891 	6.36485e-05
0.2898 	5.4513e-05
0.2905 	4.19033e-05
0.2912 	2.79039e-05
0.2919 	2.35242e-05
0.2926 	1.71002e-05
0.2933 	6.73428e-06
0.294 	6.8717e-08
0.2947 	6.36307e-08
0.2954 	5.20632e-08
0.2961 	3.56349e-08
0.2968 	2.96842e-08
0.2975 	2.38254e-08
0.2982 	1.04893e-08
0.2989 	1.10307e-11
0.2996 	1.1549e-11
0.3003 	1.12529e-11
0.301 	9.87082e-12
0.3017 	9.6478e-12
0.3024 	9.90031e-12
0.3031 	8.98549e-12
0.3038 	8.19957e-12
0.3045 	9.08928e-12
0.3052 	9.95527e-12
0.3059 	1.0762e-11
0.3066 	1.14336e-11
0.3073 	1.19702e-11
0.308 	1.2548e-11
0.3087 	1.31266e-11
0.3094 	1.34564e-11
0.3101 	1.37657e-11
0.3108 	1.40671e-11
0.3115 	1.42386e-11
0.3122 	1.41763e-11
0.3129 	1.42392e-11
0.3136 	1.43263e-11
0.3143 	1.41279e-11
0.315 	1.38516e-11
0.3157 	1.36094e-11
0.3164 	1.32923e-11
0.3171 	1.27006e-11
0.3178 	1.21766e-11
0.3185 	1.16823e-11
0.3192 	1.09629e-11
0.3199 	1.01183e-11
0.3206 	9.31723e-12
0.3213 	8.52422e-12
0.322 	7.74124e-12
0.3227 	6.95261e-12
0.3234 	6.15937e-12
0.3241 	5.3706e-12
0.3248 	4.58631e-12
0.3255 	3.81651e-12
0.3262 	3.05251e-12
0.3269 	2.59295e-12
0.3276 	2.11672e-12
0.3283 	1.58194e-12
0.329 	1.16377e-12
0.3297 	9.55488e-13
0.3304 	7.43955e-13
0.3311 	5.29987e-13
0.3318 	4.15235e-13
0.3325 	3.14579e-13
0.3332 	1.77511e-13
0.3339 	6.7425e-14
0.3346 	5.62672e-14
0.3353 	4.41439e-14
0.336 	3.07332e-14
0.3367 	2.32048e-14
0.3374 	1.83583e-14
0.3381 	9.15891e-15
0.3388 	6.1144e-16
0.3395 	5.38738e-16
0.3402 	4.4931e-16
0.3409 	3.18067e-16
0.3416 	2.3686e-16
0.3423 	2.05685e-16
0.343 	1.07551e-16
0.3437 	7.67924e-18
0.3444 	5.23502e-19
0.3451 	4.83413e-19
0.3458 	3.4911e-19
0.3465 	2.54843e-19
0.3472 	2.3264e-19
0.3479 	1.35913e-19
0.3486 	2.40127e-20
0.3493 	3.59795e-23
0.35 	3.76691e-23
0.3507 	2.76745e-23
0.3514 	1.95789e-23
0.3521 	1.84462e-23
0.3528 	1.2012e-23
0.3535 	3.1619e-24
0.3542 	1.2214e-27
0.3549 	1.26535e-27
0.3556 	9.82139e-28
0.3563 	6.65655e-28
0.357 	6.25409e-28
0.3577 	4.45675e-28
0.3584 	1.48585e-28
0.3591 	4.22953e-32
0.3598 	4.3188e-32
0.3605 	3.51919e-32
0.3612 	2.36403e-32
0.3619 	2.1463e-32
0.3626 	1.65634e-32
0.3633 	6.48219e-33
0.364 	1.46404e-36
0.3647 	1.48494e-36
0.3654 	1.26678e-36
0.3661 	8.6931e-37
0.3668 	7.43892e-37
0.3675 	6.17452e-37
0.3682 	2.71705e-37
0.3689 	4.94197e-41
0.3696 	5.02045e-41
0.3703 	4.4877e-41
0.371 	3.13997e-41
0.3717 	2.54802e-41
0.3724 	2.26417e-41
0.3731 	1.09024e-41
0.3738 	1.6068e-45
0.3745 	1.64046e-45
0.3752 	1.53799e-45
0.3759 	1.09519e-45
0.3766 	8.46094e-46
0.3773 	7.90707e-46
0.378 	4.14543e-46
0.3787 	2.76813e-47
0.3794 	5.1597e-50
0.3801 	5.06979e-50
0.3808 	3.66796e-50
0.3815 	2.70522e-50
0.3822 	2.53286e-50
0.3829 	1.49096e-50
0.3836 	2.63232e-51
0.3843 	1.56974e-54
0.385 	1.61251e-54
0.3857 	1.18355e-54
0.3864 	8.353e-55
0.3871 	7.82945e-55
0.3878 	5.10425e-55
0.3885 	1.34355e-55
0.3892 	4.65555e-59
0.3899 	4.78202e-59
0.3906 	3.70534e-59
0.3913 	2.50822e-59
0.392 	2.35195e-59
0.3927 	1.67915e-59
0.3934 	5.59802e-60
0.3941 	1.35481e-63
0.3948 	1.38918e-63
0.3955 	1.13303e-63
0.3962 	7.60656e-64
0.3969 	6.91379e-64
0.3976 	5.35507e-64
0.3983 	2.09569e-64
0.399 	3.88086e-68
0.3997 	3.96982e-68
0.4004 	3.39813e-68
0.4011 	2.33095e-68
0.4018 	1.99767e-68
0.4025 	1.6656e-68
0.4032 	7.32924e-69
0.4039 	1.09414e-72
0.4046 	1.11668e-72
0.4053 	1.00066e-72
0.406 	6.99881e-73
0.4067 	5.68113e-73
0.4074 	5.06616e-73
0.4081 	2.43941e-73
0.4088 	7.43608e-78
0.4095 	-2.97617e-76
0.4102 	-4.30479e-76
0.4109 	-1.32867e-76
0.4116 	1.52443e-77
0.4123 	1.38585e-77
0.413 	6.79264e-78
0.4137 	-5.01651e-79
0.4144 	-5.36486e-76
0.4151 	-9.48445e-76
0.4158 	-3.72258e-76
0.4165 	-1.93505e-78
0.4172 	-2.16029e-78
0.4179 	-2.26876e-78
0.4186 	-2.35119e-78
0.4193 	-5.01126e-76
0.42 	-1.13591e-75
0.4207 	-5.01211e-76
0.4214 	-2.52933e-78
0.4221 	-2.54702e-78
0.4228 	-2.55997e-78
0.4235 	-2.57062e-78
0.4242 	-3.84343e-76
0.4249 	-9.78201e-76
0.4256 	-5.53991e-76
0.4263 	-2.51969e-78
0.427 	-2.43249e-78
0.4277 	-2.38315e-78
0.4284 	-2.36735e-78
0.4291 	-2.51981e-76
0.4298 	-7.51221e-76
0.4305 	-5.37201e-76
0.4312 	-3.78783e-77
0.4319 	-2.08751e-78
0.4326 	-1.99308e-78
0.4333 	-1.96591e-78
0.434 	-1.39177e-76
0.4347 	-5.23414e-76
0.4354 	-4.68464e-76
0.4361 	-8.41251e-77
0.4368 	-1.65214e-78
0.4375 	-1.53287e-78
0.4382 	-1.50316e-78
0.4389 	-6.00395e-77
0.4396 	-3.33313e-76
0.4403 	-3.72309e-76
0.441 	-9.89371e-77
0.4417 	-1.21915e-78
0.4424 	-1.09573e-78
0.4431 	-1.06887e-78
0.4438 	-1.39529e-77
0.4445 	-1.94669e-76
0.4452 	-2.72095e-76
0.4459 	-9.12963e-77
0.4466 	-8.44003e-79
0.4473 	-7.36445e-79
0.448 	-7.11209e-79
0.4487 	-6.89787e-79
0.4494 	-1.04371e-76
0.4501 	-1.84118e-76
0.4508 	-7.23978e-77
0.4515 	-5.50441e-79
0.4522 	-4.72074e-79
0.4529 	-4.44774e-79
0.4536 	-4.29289e-79
0.4543 	-5.12764e-77
0.455 	-1.15995e-76
0.4557 	-5.12339e-77
0.4564 	-3.39226e-79
0.4571 	-2.86633e-79
0.4578 	-2.62315e-79
0.4585 	-2.52015e-79
0.4592 	-2.29499e-77
0.4599 	-5.82633e-77
0.4606 	-3.30163e-77
0.4613 	-1.98024e-79
0.462 	-1.65221e-79
0.4627 	-1.46299e-79
0.4634 	-1.39936e-79
0.4641 	-9.23496e-78
0.4648 	-2.74312e-77
0.4655 	-1.96214e-77
0.4662 	-1.40915e-78
0.4669 	-9.05755e-80
0.4676 	-7.73389e-80
0.4683 	-7.36652e-80
0.469 	-3.2426e-78
0.4697 	-1.21221e-77
0.4704 	-1.08486e-77
0.4711 	-1.96016e-78
0.4718 	-4.72955e-80
0.4725 	-3.88309e-80
0.4732 	-3.68384e-80
0.4739 	-9.1691e-79
0.4746 	-5.03115e-78
0.4753 	-5.61691e-78
0.476 	-1.49805e-78
0.4767 	-2.35541e-80
0.4774 	-1.85515e-80
0.4781 	-1.75326e-80
0.4788 	-1.4619e-79
0.4795 	-1.96055e-78
0.4802 	-2.73748e-78
0.4809 	-9.20839e-79
0.4816 	-1.12015e-80
0.4823 	-8.55367e-81
0.483 	-7.95512e-81
0.4837 	-7.46238e-81
0.4844 	-7.16152e-79
0.4851 	-1.26117e-78
0.4858 	-4.96867e-79
0.4865 	-5.09261e-81
0.4872 	-3.86553e-81
0.4879 	-3.44677e-81
0.4886 	-3.22079e-81
0.4893 	-2.44315e-79
0.49 	-5.51223e-79
0.4907 	-2.43843e-79
0.4914 	-2.21591e-81
0.4921 	-1.67538e-81
0.4928 	-1.42834e-81
0.4935 	-1.32982e-81
0.4942 	-7.72797e-80
0.4949 	-1.95478e-79
0.4956 	-1.1088e-79
0.4963 	-9.23839e-82
0.497 	-6.97029e-82
0.4977 	-5.66984e-82
0.4984 	-5.26069e-82
0.4991 	-2.2345e-80
0.4998 	-6.60236e-80
0.5005 	-4.7247e-80
0.5012 	-3.48845e-81
0.5019 	-2.78618e-82
0.5026 	-2.15916e-82
0.5033 	-1.99695e-82
0.504 	-5.73006e-81
0.5047 	-2.12442e-80
0.5054 	-1.90103e-80
0.5061 	-3.46543e-81
0.5068 	-1.071e-82
0.5075 	-7.89976e-83
0.5082 	-7.28462e-83
0.5089 	-1.20482e-81
0.5096 	-6.50985e-81
0.5103 	-7.26286e-81
0.511 	-1.94652e-81
0.5117 	-3.96277e-83
0.5124 	-2.78087e-83
0.5131 	-2.55735e-83
0.5138 	-1.48438e-82
0.5145 	-1.89753e-81
0.5152 	-2.646e-81
0.5159 	-8.92913e-82
0.5166 	-1.41276e-83
0.5173 	-9.62903e-84
0.518 	-8.65219e-84
0.5187 	-7.87255e-84
0.5194 	-5.24868e-82
0.5201 	-9.22405e-82
0.5208 	-3.64228e-82
0.5215 	-4.85781e-84
0.5222 	-3.33424e-84
0.5229 	-2.82492e-84
0.5236 	-2.56344e-84
0.5243 	-1.3717e-82
0.525 	-3.08559e-82
0.5257 	-1.36728e-82
0.5264 	-1.61274e-84
0.5271 	-1.11583e-84
0.5278 	-8.91259e-85
0.5285 	-8.06799e-85
0.5292 	-3.36061e-83
0.5299 	-8.46739e-83
0.5306 	-4.80777e-83
0.5313 	-5.17486e-85
0.532 	-3.6117e-85
0.5327 	-2.72065e-85
0.5334 	-2.4575e-85
0.5341 	-7.60637e-84
0.5348 	-2.23539e-83
0.5355 	-1.60033e-83
0.5362 	-1.21364e-84
0.5369 	-1.13161e-85
0.5376 	-8.04528e-86
0.5383 	-7.25329e-86
0.539 	-1.54318e-84
0.5397 	-5.67521e-84
0.5404 	-5.07784e-84
0.5411 	-9.33403e-85
0.5418 	-3.43495e-86
0.5425 	-2.30739e-86
0.5432 	-2.0768e-86
0.5439 	-2.59903e-85
0.5446 	-1.38431e-84
0.5453 	-1.54343e-84
0.546 	-4.15495e-85
0.5467 	-1.01105e-86
0.5474 	-6.42532e-87
0.5481 	-5.77499e-87
0.5488 	-2.64176e-86
0.5495 	-3.23858e-85
0.5502 	-4.51055e-85
0.5509 	-1.52643e-85
0.5516 	-2.88828e-87
0.5523 	-1.79066e-87
0.553 	-1.56121e-87
0.5537 	-1.38332e-87
0.5544 	-7.24578e-86
0.5551 	-1.27103e-85
0.5558 	-5.02877e-86
0.5565 	-8.01522e-88
0.5572 	-5.07212e-88
0.5579 	-4.10728e-88
0.5586 	-3.63478e-88
0.5593 	-1.54286e-86
0.56 	-3.46151e-86
0.5607 	-1.53609e-86
0.5614 	-2.16265e-88
0.5621 	-1.39549e-88
0.5628 	-1.05253e-88
0.5635 	-9.3052e-89
0.5642 	-3.10108e-87
0.5649 	-7.78699e-87
0.5656 	-4.42525e-87
0.5663 	-5.67843e-89
0.567 	-3.73237e-89
0.5677 	-2.62955e-89
0.5684 	-2.32294e-89
0.5691 	-5.79706e-88
0.5698 	-1.69572e-87
0.5705 	-1.21442e-87
0.5712 	-9.41919e-89
0.5719 	-9.7124e-90
0.5726 	-6.40988e-90
0.5733 	-5.65932e-90
0.574 	-9.78072e-89
0.5747 	-3.57171e-88
0.5754 	-3.19541e-88
0.5761 	-5.91656e-89
0.5768 	-2.461e-90
0.5775 	-1.52571e-90
0.5782 	-1.34656e-90
0.5789 	-1.38176e-89
0.5796 	-7.26718e-89
0.5803 	-8.0978e-89
0.581 	-2.18868e-89
0.5817 	-6.07702e-91
0.5824 	-3.5486e-91
0.5831 	-3.13132e-91
0.5838 	-1.20638e-90
0.5845 	-1.42539e-89
0.5852 	-1.98302e-89
0.5859 	-6.72847e-90
0.5866 	-1.46352e-91
0.5873 	-8.37909e-92
0.588 	-7.12112e-92
0.5887 	-6.1719e-92
0.5894 	-2.68653e-90
0.5901 	-4.70441e-90
0.5908 	-1.86484e-90
0.5915 	-3.43999e-92
0.5922 	-2.03587e-92
0.5929 	-1.58471e-92
0.5936 	-1.37366e-92
0.5943 	-4.84119e-91
0.595 	-1.08336e-90
0.5957 	-4.81471e-91
0.5964 	-7.89718e-93
0.5971 	-4.81497e-93
0.5978 	-3.45283e-93
0.5985 	-2.99392e-93
0.5992 	-8.2718e-92
0.5999 	-2.06988e-91
0.6006 	-1.17738e-91
0.6013 	-1.77186e-93
0.602 	-1.10973e-93
0.6027 	-7.36976e-94
0.6034 	-6.39316e-94
0.6041 	-1.32046e-92
0.6048 	-3.84329e-92
0.6055 	-2.75361e-92
0.6062 	-2.18928e-93
0.6069 	-2.49491e-94
0.6076 	-1.54168e-94
0.6083 	-1.33817e-94
0.609 	-1.91218e-93
0.6097 	-6.92822e-93
0.6104 	-6.19775e-93
0.6111 	-1.15739e-93
0.6118 	-5.47656e-95
0.6125 	-3.16228e-95
0.6132 	-2.74678e-95
0.6139 	-2.33601e-94
0.6146 	-1.21079e-93
0.6153 	-1.34829e-93
0.616 	-3.66215e-94
0.6167 	-1.17471e-95
0.6174 	-6.36293e-96
0.6181 	-5.53135e-96
0.6188 	-1.80881e-95
0.6195 	-2.04689e-94
0.6202 	-2.84386e-94
0.6209 	-9.6821e-95
0.6216 	-2.46409e-96
0.6223 	-1.31486e-96
0.623 	-1.09321e-96
0.6237 	-9.2999e-97
0.6244 	-3.33648e-95
0.6251 	-5.82969e-95
0.6258 	-2.31682e-95
0.6265 	-5.05805e-97
0.6272 	-2.82383e-97
0.6279 	-2.12133e-97
0.6286 	-1.80698e-97
0.6293 	-5.21733e-96
0.63 	-1.16362e-95
0.6307 	-5.18196e-96
0.6314 	-1.01669e-97
0.6321 	-5.90337e-98
0.6328 	-4.04294e-98
0.6335 	-3.44867e-98
0.6342 	-7.76257e-97
0.6349 	-1.93342e-96
0.6356 	-1.10122e-96
0.6363 	-2.00229e-98
0.637 	-1.20337e-98
0.6377 	-7.57037e-99
0.6384 	-6.46718e-99
0.6391 	-1.08316e-97
0.6398 	-3.13116e-97
0.6405 	-2.24482e-97
0.6412 	-1.84753e-98
0.6419 	-2.39518e-99
0.6426 	-1.39319e-99
0.6433 	-1.19201e-99
0.644 	-1.37761e-98
0.6447 	-4.93735e-98
0.6454 	-4.41641e-98
0.6461 	-8.34956e-99
0.6468 	-4.66041e-100
0.6475 	-2.52067e-100
0.6482 	-2.16011e-100
0.6489 	-1.49028e-99
0.6496 	-7.56903e-99
0.6503 	-8.42097e-99
0.651 	-2.30383e-99
0.6517 	-8.87341e-101
0.6524 	-4.48498e-101
0.6531 	-3.84976e-101
0.6538 	-1.05468e-100
0.6545 	-1.12563e-99
0.6552 	-1.56094e-99
0.6559 	-5.341e-100
0.6566 	-1.65468e-101
0.6573 	-8.27564e-102
0.658 	-6.74952e-102
0.6587 	-5.64896e-102
0.6594 	-1.61865e-100
0.6601 	-2.81929e-100
0.6608 	-1.1247e-100
0.6615 	-3.02431e-102
0.6622 	-1.60168e-102
0.6629 	-1.16443e-102
0.6636 	-9.76863e-103
0.6643 	-2.23955e-101
0.665 	-4.97068e-101
0.6657 	-2.22035e-101
0.6664 	-5.42152e-103
0.6671 	-3.01391e-103
0.6678 	-1.97731e-103
0.6685 	-1.66274e-103
0.6692 	-2.95764e-102
0.6699 	-7.31724e-102
0.6706 	-4.17598e-102
0.6713 	-9.53819e-104
0.672 	-5.52782e-104
0.6727 	-3.30574e-104
0.6734 	-2.78646e-104
0.6741 	-3.67685e-103
0.6748 	-1.05252e-102
0.6755 	-7.55315e-103
0.6762 	-6.52951e-104
0.6769 	-9.90133e-105
0.6776 	-5.44264e-105
0.6783 	-4.59864e-105
0.679 	-4.18778e-104
0.6797 	-1.47778e-103
0.6804 	-1.32174e-103
0.6811 	-2.54406e-104
0.6818 	-1.73469e-105
0.6825 	-8.82704e-106
0.6832 	-7.47602e-106
0.6839 	-4.09706e-105
0.6846 	-2.02232e-104
0.6853 	-2.24705e-104
0.686 	-6.21265e-105
0.6867 	-2.97648e-106
0.6874 	-1.41065e-106
0.6881 	-1.1976e-106
0.6888 	-2.72765e-106
0.6895 	-2.6918e-105
0.6902 	-3.72267e-105
0.6909 	-1.2831e-105
0.6916 	-5.00763e-107
0.6923 	-2.35876e-107
0.693 	-1.89115e-107
0.6937 	-1.56004e-107
0.6944 	-3.47447e-106
0.6951 	-6.02445e-106
0.6958 	-2.41663e-106
0.6965 	-8.46347e-108
0.6972 	-4.91217e-108
0.6979 	-3.84414e-108
0.6986 	-3.4035e-108
0.6993 	-7.52497e-107
0.7 	-1.6681e-106
