0 	1
0.0007 	1
0.0014 	1
0.0021 	1
0.0028 	1
0.0035 	1
0.0042 	1
0.0049 	1
0.0056 	1
0.0063 	1
0.007 	1
0.0077 	1
0.0084 	1
0.0091 	1
0.0098 	1
0.0105 	1
0.0112 	1
0.0119 	1
0.0126 	1
0.0133 	1
0.014 	1
0.0147 	1
0.0154 	1
0.0161 	1
0.0168 	1
0.0175 	1
0.0182 	1
0.0189 	1
0.0196 	1
0.0203 	1
0.021 	1
0.0217 	1
0.0224 	1
0.0231 	1
0.0238 	1
0.0245 	1
0.0252 	1
0.0259 	1
0.0266 	1
0.0273 	1
0.028 	1
0.0287 	1
0.0294 	1
0.0301 	1
0.0308 	1
0.0315 	1
0.0322 	1
0.0329 	1
0.0336 	1
0.0343 	1
0.035 	1
0.0357 	1
0.0364 	1
0.0371 	1
0.0378 	1
0.0385 	1
0.0392 	1
0.0399 	1
0.0406 	1
0.0413 	1
0.042 	1
0.0427 	1
0.0434 	1
0.0441 	1
0.0448 	1
0.0455 	1
0.0462 	1
0.0469 	1
0.0476 	1
0.0483 	1
0.049 	1
0.0497 	1
0.0504 	1
0.0511 	1
0.0518 	1
0.0525 	1
0.0532 	1
0.0539 	1
0.0546 	1
0.0553 	1
0.056 	1
0.0567 	1
0.0574 	1
0.0581 	1
0.0588 	1
0.0595 	1
0.0602 	1
0.0609 	1
0.0616 	1
0.0623 	1
0.063 	1
0.0637 	1
0.0644 	1
0.0651 	1
0.0658 	1
0.0665 	1
0.0672 	1
0.0679 	1
0.0686 	1
0.0693 	1
0.07 	1
0.0707 	1
0.0714 	1
0.0721 	1
0.0728 	1
0.0735 	1
0.0742 	1
0.0749 	1
0.0756 	1
0.0763 	1
0.077 	1
0.0777 	1
0.0784 	1
0.0791 	1
0.0798 	1
0.0805 	1
0.0812 	1
0.0819 	1
0.0826 	1
0.0833 	1
0.084 	1
0.0847 	1
0.0854 	1
0.0861 	1
0.0868 	1
0.0875 	1
0.0882 	1
0.0889 	1
0.0896 	1
0.0903 	1
0.091 	1
0.0917 	1
0.0924 	1
0.0931 	1
0.0938 	1
0.0945 	1
0.0952 	1
0.0959 	1
0.0966 	1
0.0973 	1
0.098 	1
0.0987 	1
0.0994 	1
0.1001 	1
0.1008 	1
0.1015 	1
0.1022 	1
0.1029 	1
0.1036 	1
0.1043 	1
0.105 	1
0.1057 	1
0.1064 	1
0.1071 	1
0.1078 	1
0.1085 	1
0.1092 	1
0.1099 	1
0.1106 	1
0.1113 	1
0.112 	1
0.1127 	1
0.1134 	1
0.1141 	1
0.1148 	1
0.1155 	1
0.1162 	1
0.1169 	1
0.1176 	1
0.1183 	1
0.119 	1
0.1197 	1
0.1204 	1
0.1211 	1
0.1218 	1
0.1225 	1
0.1232 	1
0.1239 	1
0.1246 	1
0.1253 	1
0.126 	1
0.1267 	1
0.1274 	1
0.1281 	1
0.1288 	1
0.1295 	1
0.1302 	1
0.1309 	1
0.1316 	1
0.1323 	1
0.133 	1
0.1337 	1
0.1344 	1
0.1351 	1
0.1358 	1
0.1365 	1
0.1372 	1
0.1379 	1
0.1386 	1
0.1393 	1
0.14 	1
0.1407 	1
0.1414 	1
0.1421 	1
0.1428 	1
0.1435 	1
0.1442 	1
0.1449 	1
0.1456 	1
0.1463 	1
0.147 	1
0.1477 	1
0.1484 	1
0.1491 	1
0.1498 	1
0.1505 	1
0.1512 	1
0.1519 	1
0.1526 	1
0.1533 	1
0.154 	1
0.1547 	1
0.1554 	1
0.1561 	1
0.1568 	1
0.1575 	1
0.1582 	1
0.1589 	1
0.1596 	1
0.1603 	1
0.161 	1
0.1617 	1
0.1624 	1
0.1631 	1
0.1638 	1
0.1645 	1
0.1652 	1
0.1659 	1
0.1666 	1
0.1673 	1
0.168 	1
0.1687 	1
0.1694 	1
0.1701 	1
0.1708 	1
0.1715 	1
0.1722 	1
0.1729 	1
0.1736 	1
0.1743 	1
0.175 	1
0.1757 	1
0.1764 	1
0.1771 	1
0.1778 	1
0.1785 	1
0.1792 	1
0.1799 	1
0.1806 	1
0.1813 	1
0.182 	1
0.1827 	1
0.1834 	1
0.1841 	1
0.1848 	1
0.1855 	1
0.1862 	1
0.1869 	1
0.1876 	1
0.1883 	1
0.189 	1
0.1897 	1
0.1904 	1
0.1911 	1
0.1918 	1
0.1925 	1
0.1932 	1
0.1939 	1
0.1946 	1
0.1953 	1
0.196 	1
0.1967 	1
0.1974 	1
0.1981 	1
0.1988 	1
0.1995 	1
0.2002 	1
0.2009 	1
0.2016 	1
0.2023 	1
0.203 	1
0.2037 	1
0.2044 	1
0.2051 	1
0.2058 	1
0.2065 	1
0.2072 	1
0.2079 	1
0.2086 	1
0.2093 	1
0.21 	1
0.2107 	1
0.2114 	1
0.2121 	1
0.2128 	1
0.2135 	1
0.2142 	1
0.2149 	1
0.2156 	1
0.2163 	1
0.217 	1
0.2177 	1
0.2184 	1
0.2191 	1
0.2198 	1
0.2205 	1
0.2212 	1
0.2219 	1
0.2226 	1
0.2233 	1
0.224 	1
0.2247 	1
0.2254 	1
0.2261 	1
0.2268 	1
0.2275 	1
0.2282 	1
0.2289 	1
0.2296 	1
0.2303 	1
0.231 	1
0.2317 	1
0.2324 	1
0.2331 	1
0.2338 	1
0.2345 	1
0.2352 	1
0.2359 	1
0.2366 	1
0.2373 	1
0.238 	1
0.2387 	1
0.2394 	1
0.2401 	1
0.2408 	1
0.2415 	0.999999
0.2422 	0.999998
0.2429 	0.999993
0.2436 	0.999989
0.2443 	0.999983
0.245 	0.999977
0.2457 	0.999974
0.2464 	0.99991
0.2471 	0.999621
0.2478 	0.999044
0.2485 	0.998445
0.2492 	0.997662
0.2499 	0.996776
0.2506 	0.99605
0.2513 	0.994815
0.252 	0.986621
0.2527 	0.975128
0.2534 	0.962735
0.2541 	0.946592
0.2548 	0.926699
0.2555 	0.90769
0.2562 	0.889034
0.2569 	0.844987
0.2576 	0.794269
0.2583 	0.740928
0.259 	0.677818
0.2597 	0.597123
0.2604 	0.516377
0.2611 	0.435591
0.2618 	0.370711
0.2625 	0.311975
0.2632 	0.25505
0.2639 	0.202463
0.2646 	0.165784
0.2653 	0.128456
0.266 	0.0902621
0.2667 	0.0614128
0.2674 	0.0404762
0.2681 	0.0244468
0.2688 	0.00945657
0.2695 	0.00797376
0.2702 	0.00638148
0.2709 	0.00451548
0.2716 	0.00295328
0.2723 	0.00181953
0.273 	0.00114446
0.2737 	0.000469385
0.2744 	0.000359387
0.2751 	0.000290952
0.2758 	0.000211101
0.2765 	0.000140865
0.2772 	8.95262e-05
0.2779 	5.90745e-05
0.2786 	2.86227e-05
0.2793 	1.93546e-05
0.28 	1.58639e-05
0.2807 	1.16561e-05
0.2814 	7.75089e-06
0.2821 	4.95519e-06
0.2828 	3.2767e-06
0.2835 	1.68518e-06
0.2842 	1.00287e-06
0.2849 	8.25673e-07
0.2856 	6.14921e-07
0.2863 	4.03756e-07
0.287 	2.59916e-07
0.2877 	1.6603e-07
0.2884 	8.58408e-08
0.2891 	4.19641e-08
0.2898 	3.43992e-08
0.2905 	2.576e-08
0.2912 	1.6691e-08
0.2919 	1.05831e-08
0.2926 	6.32558e-09
0.2933 	2.97347e-09
0.294 	7.61822e-10
0.2947 	6.02994e-10
0.2954 	4.48911e-10
0.2961 	2.98386e-10
0.2968 	2.01732e-10
0.2975 	1.26467e-10
0.2982 	5.79291e-11
0.2989 	4.09135e-12
0.2996 	4.15451e-12
0.3003 	4.21046e-12
0.301 	4.25679e-12
0.3017 	4.33529e-12
0.3024 	4.41213e-12
0.3031 	4.4536e-12
0.3038 	4.49865e-12
0.3045 	4.59024e-12
0.3052 	4.68147e-12
0.3059 	4.77179e-12
0.3066 	4.73995e-12
0.3073 	4.58722e-12
0.308 	4.4392e-12
0.3087 	4.29119e-12
0.3094 	3.91607e-12
0.3101 	3.52419e-12
0.3108 	3.13653e-12
0.3115 	2.77863e-12
0.3122 	2.47505e-12
0.3129 	2.18111e-12
0.3136 	1.88718e-12
0.3143 	1.65859e-12
0.315 	1.44782e-12
0.3157 	1.23861e-12
0.3164 	1.04326e-12
0.3171 	8.98693e-13
0.3178 	7.58348e-13
0.3185 	6.18336e-13
0.3192 	5.19899e-13
0.3199 	4.44559e-13
0.3206 	3.69523e-13
0.3213 	2.96446e-13
0.322 	2.48183e-13
0.3227 	2.01314e-13
0.3234 	1.54828e-13
0.3241 	1.21726e-13
0.3248 	1.02007e-13
0.3255 	8.23217e-14
0.3262 	6.26503e-14
0.3269 	5.06468e-14
0.3276 	3.91348e-14
0.3283 	2.75675e-14
0.329 	1.89565e-14
0.3297 	1.56666e-14
0.3304 	1.23833e-14
0.3311 	9.10503e-15
0.3318 	7.06478e-15
0.3325 	5.26403e-15
0.3332 	3.36433e-15
0.3339 	1.80331e-15
0.3346 	1.4841e-15
0.3353 	1.16296e-15
0.336 	8.39263e-16
0.3367 	6.28445e-16
0.3374 	4.64746e-16
0.3381 	2.72718e-16
0.3388 	9.32782e-17
0.3395 	7.74941e-17
0.3402 	6.13172e-17
0.3409 	4.41583e-17
0.3416 	3.22598e-17
0.3423 	2.4722e-17
0.343 	1.38404e-17
0.3437 	2.95888e-18
0.3444 	1.88802e-18
0.3451 	1.5566e-18
0.3458 	1.13392e-18
0.3465 	8.15757e-19
0.3472 	6.74276e-19
0.3479 	3.78471e-19
0.3486 	8.26656e-20
0.3493 	1.78277e-20
0.35 	1.59801e-20
0.3507 	1.18451e-20
0.3514 	8.39542e-21
0.3521 	7.45846e-21
0.3528 	4.41401e-21
0.3535 	1.20134e-21
0.3542 	5.34426e-23
0.3549 	5.26248e-23
0.3556 	4.10473e-23
0.3563 	2.84863e-23
0.357 	2.64532e-23
0.3577 	1.71034e-23
0.3584 	5.72708e-24
0.3591 	4.08012e-26
0.3598 	4.44995e-26
0.3605 	3.7389e-26
0.3612 	2.59549e-26
0.3619 	2.417e-26
0.3626 	1.71248e-26
0.3633 	6.70471e-27
0.364 	6.55675e-30
0.3647 	7.74021e-30
0.3654 	7.07421e-30
0.3661 	5.02111e-30
0.3668 	4.49021e-30
0.3675 	3.46696e-30
0.3682 	1.52579e-30
0.3689 	6.11786e-34
0.3696 	7.2532e-34
0.3703 	7.0589e-34
0.371 	5.09174e-34
0.3717 	4.31792e-34
0.3724 	3.5876e-34
0.3731 	1.72766e-34
0.3738 	5.82768e-38
0.3745 	6.92034e-38
0.3752 	7.15295e-38
0.3759 	5.23542e-38
0.3766 	4.22175e-38
0.3773 	3.75262e-38
0.378 	1.94128e-38
0.3787 	1.29944e-39
0.3794 	6.64891e-42
0.3801 	7.28726e-42
0.3808 	5.40536e-42
0.3815 	4.15652e-42
0.3822 	3.9335e-42
0.3829 	2.15733e-42
0.3836 	3.81159e-43
0.3843 	6.35253e-46
0.385 	7.37902e-46
0.3857 	5.54105e-46
0.3864 	4.0739e-46
0.3871 	3.96643e-46
0.3878 	2.35397e-46
0.3885 	6.19856e-47
0.3892 	5.97935e-50
0.3899 	6.97172e-50
0.3906 	5.59488e-50
0.3913 	3.94237e-50
0.392 	3.8394e-50
0.3927 	2.50888e-50
0.3934 	8.36626e-51
0.3941 	5.51355e-54
0.3948 	6.46598e-54
0.3955 	5.53966e-54
0.3962 	3.86185e-54
0.3969 	3.65316e-54
0.3976 	2.60512e-54
0.3983 	1.01968e-54
0.399 	4.95531e-58
0.3997 	5.85288e-58
0.4004 	5.35031e-58
0.4011 	3.79762e-58
0.4018 	3.39709e-58
0.4025 	2.62437e-58
0.4032 	1.15495e-58
0.4039 	4.33628e-62
0.4046 	5.16478e-62
0.4053 	5.03693e-62
0.406 	3.63394e-62
0.4067 	3.08426e-62
0.4074 	2.56544e-62
0.4081 	1.2354e-62
0.4088 	3.69508e-66
0.4095 	4.43947e-66
0.4102 	4.61787e-66
0.4109 	3.38126e-66
0.4116 	2.73059e-66
0.4123 	2.43251e-66
0.413 	1.25834e-66
0.4137 	8.41783e-68
0.4144 	3.72386e-70
0.4151 	4.13108e-70
0.4158 	3.06592e-70
0.4165 	2.36181e-70
0.4172 	2.24303e-70
0.4179 	1.23016e-70
0.4186 	2.17302e-71
0.4193 	3.0596e-74
0.42 	3.61919e-74
0.4207 	2.71939e-74
0.4214 	2.00284e-74
0.4221 	1.95817e-74
0.4228 	1.16288e-74
0.4235 	3.06179e-75
0.4242 	2.4673e-78
0.4249 	2.93782e-78
0.4256 	2.3648e-78
0.4263 	1.66861e-78
0.427 	1.63236e-78
0.4277 	1.06811e-78
0.4284 	3.56154e-79
0.4291 	1.96341e-82
0.4298 	2.35425e-82
0.4305 	2.02819e-82
0.4312 	1.41538e-82
0.4319 	1.34461e-82
0.4326 	9.60783e-83
0.4333 	3.76045e-83
0.434 	1.54305e-86
0.4347 	1.86385e-86
0.4354 	1.71719e-86
0.4361 	1.21993e-86
0.4368 	1.09524e-86
0.4375 	8.48267e-87
0.4382 	3.73301e-87
0.4389 	1.2005e-90
0.4396 	1.46183e-90
0.4403 	1.43963e-90
0.441 	1.0394e-90
0.4417 	8.84797e-91
0.4424 	7.3815e-91
0.4431 	3.55453e-91
0.4438 	9.26442e-95
0.4445 	1.13768e-94
0.4452 	1.19718e-94
0.4459 	8.77367e-95
0.4466 	7.10376e-95
0.4473 	6.34959e-95
0.448 	3.28461e-95
0.4487 	2.19636e-96
0.4494 	-5.00789e-99
0.4501 	-1.44812e-98
0.4508 	-2.22403e-99
0.4515 	5.62291e-99
0.4522 	5.37526e-99
0.4529 	2.93746e-99
0.4536 	4.9966e-100
0.4543 	-4.06495e-99
0.455 	-9.20959e-99
0.4557 	-4.06242e-99
0.4564 	-1.6618e-101
0.4571 	-9.21271e-102
0.4578 	-8.38615e-102
0.4585 	-8.10391e-102
0.4592 	-1.09475e-99
0.4599 	-2.78524e-99
0.4606 	-1.57695e-99
0.4613 	-6.1536e-102
0.462 	-3.53181e-102
0.4627 	-2.82892e-102
0.4634 	-2.66532e-102
0.4641 	-2.66839e-100
0.4648 	-7.95348e-100
0.4655 	-5.68626e-100
0.4662 	-3.9812e-101
0.4669 	-1.22854e-102
0.4676 	-8.78589e-103
0.4683 	-8.25789e-103
0.469 	-5.71e-101
0.4697 	-2.14762e-100
0.4704 	-1.92185e-100
0.4711 	-3.44282e-101
0.4718 	-4.06947e-103
0.4725 	-2.59921e-103
0.4732 	-2.43783e-103
0.4739 	-9.86953e-102
0.4746 	-5.48484e-101
0.4753 	-6.12621e-101
0.476 	-1.62553e-101
0.4767 	-1.28489e-103
0.4774 	-7.34108e-104
0.4781 	-6.87221e-104
0.4788 	-9.42578e-103
0.4795 	-1.32372e-101
0.4802 	-1.85041e-101
0.4809 	-6.20167e-102
0.4816 	-3.87086e-104
0.4823 	-1.98331e-104
0.483 	-1.85347e-104
0.4837 	-1.72364e-104
0.4844 	-3.01211e-102
0.4851 	-5.31563e-102
0.4858 	-2.0882e-102
0.4865 	-1.11397e-104
0.4872 	-5.13455e-105
0.4879 	-4.79113e-105
0.4886 	-4.44772e-105
0.4893 	-6.43396e-103
0.49 	-1.45669e-102
0.4907 	-6.42864e-103
0.4914 	-3.06634e-105
0.4921 	-1.3979e-105
0.4928 	-1.18894e-105
0.4935 	-1.10201e-105
0.4942 	-1.2797e-103
0.4949 	-3.25368e-103
0.4956 	-1.84257e-103
0.4963 	-8.08411e-106
0.497 	-3.91832e-106
0.4977 	-2.83683e-106
0.4984 	-2.62581e-106
0.4991 	-2.33405e-104
0.4998 	-6.95172e-104
0.5005 	-4.97053e-104
0.5012 	-3.49787e-105
0.5019 	-1.04563e-106
0.5026 	-6.51747e-107
0.5033 	-6.02551e-107
0.504 	-3.77973e-105
0.5047 	-1.42031e-104
0.5054 	-1.27101e-104
0.5061 	-2.27979e-105
0.5068 	-2.66301e-107
0.5075 	-1.44377e-107
0.5082 	-1.33343e-107
0.5089 	-4.99522e-106
0.5096 	-2.77242e-105
0.5103 	-3.09648e-105
0.511 	-8.22065e-106
0.5117 	-6.48765e-108
0.5124 	-3.08776e-108
0.5131 	-2.84934e-108
0.5138 	-3.68631e-107
0.5145 	-5.16142e-106
0.5152 	-7.21457e-106
0.5159 	-2.41861e-106
0.5166 	-1.5151e-108
0.5173 	-6.3832e-109
0.518 	-5.88613e-109
0.5187 	-5.38906e-109
0.5194 	-9.1371e-107
0.5201 	-1.61235e-106
0.5208 	-6.33482e-107
0.5215 	-3.39843e-109
0.5222 	-1.27689e-109
0.5229 	-1.17678e-109
0.5236 	-1.07667e-109
0.5243 	-1.53029e-107
0.525 	-3.4645e-107
0.5257 	-1.52903e-107
0.5264 	-7.33435e-110
0.5271 	-2.81101e-110
0.5278 	-2.27922e-110
0.5285 	-2.08422e-110
0.5292 	-2.40379e-108
0.5299 	-6.11167e-108
0.5306 	-3.46114e-108
0.5313 	-1.52543e-110
0.532 	-6.49962e-111
0.5327 	-4.28043e-111
0.5334 	-3.91266e-111
0.5341 	-3.48538e-109
0.5348 	-1.03815e-108
0.5355 	-7.4229e-109
0.5362 	-5.22351e-110
0.5369 	-1.42003e-111
0.5376 	-7.80135e-112
0.5383 	-7.12917e-112
0.539 	-4.51421e-110
0.5397 	-1.69664e-109
0.5404 	-1.51831e-109
0.5411 	-2.72301e-110
0.5418 	-2.95265e-112
0.5425 	-1.38084e-112
0.5432 	-1.26166e-112
0.5439 	-4.79714e-111
0.5446 	-2.66385e-110
0.5453 	-2.97529e-110
0.546 	-7.89798e-111
0.5467 	-5.87217e-113
0.5474 	-2.37535e-113
0.5481 	-2.17022e-113
0.5488 	-2.85783e-112
0.5495 	-4.00948e-111
0.5502 	-5.6047e-111
0.5509 	-1.87872e-111
0.5516 	-1.12115e-113
0.5523 	-3.97338e-114
0.553 	-3.63037e-114
0.5537 	-3.28736e-114
0.5544 	-5.76496e-112
0.5551 	-1.01739e-111
0.5558 	-3.99692e-112
0.5565 	-2.06063e-114
0.5572 	-6.46698e-115
0.5579 	-5.90943e-115
0.5586 	-5.35187e-115
0.5593 	-7.87581e-113
0.56 	-1.7833e-112
0.5607 	-7.86991e-113
0.5614 	-3.65419e-115
0.5621 	-1.2093e-115
0.5628 	-9.36445e-116
0.5635 	-8.48288e-116
0.5642 	-1.01305e-113
0.5649 	-2.57618e-113
0.5656 	-1.45887e-113
0.5663 	-6.26306e-116
0.567 	-2.4048e-116
0.5677 	-1.44535e-116
0.5684 	-1.3097e-116
0.5691 	-1.20716e-114
0.5698 	-3.59662e-114
0.5705 	-2.57158e-114
0.5712 	-1.80744e-115
0.5719 	-4.46212e-117
0.5726 	-2.1736e-117
0.5733 	-1.97037e-117
0.574 	-1.28909e-115
0.5747 	-4.847e-115
0.5754 	-4.33758e-115
0.5761 	-7.77651e-116
0.5768 	-7.83263e-118
0.5775 	-3.18625e-118
0.5782 	-2.88964e-118
0.5789 	-1.13281e-116
0.5796 	-6.29521e-116
0.5803 	-7.03147e-116
0.581 	-1.86619e-116
0.5817 	-1.31158e-118
0.5824 	-4.55423e-119
0.5831 	-4.13238e-119
0.5838 	-5.58955e-118
0.5845 	-7.86043e-117
0.5852 	-1.09885e-116
0.5859 	-3.68302e-117
0.5866 	-2.10653e-119
0.5873 	-6.34948e-120
0.588 	-5.76458e-120
0.5887 	-5.17968e-120
0.5894 	-9.40211e-118
0.5901 	-1.65942e-117
0.5908 	-6.51876e-118
0.5915 	-3.25748e-120
0.5922 	-8.63711e-121
0.5929 	-7.84621e-121
0.5936 	-7.05532e-121
0.5943 	-1.07126e-118
0.595 	-2.42592e-118
0.5957 	-1.07054e-118
0.5964 	-4.86335e-121
0.5971 	-1.41059e-121
0.5978 	-1.04236e-121
0.5985 	-9.38036e-122
0.5992 	-1.15211e-119
0.5999 	-2.93025e-119
0.6006 	-1.65935e-119
0.6013 	-7.02527e-122
0.602 	-2.46705e-122
0.6027 	-1.35186e-122
0.6034 	-1.21756e-122
0.6041 	-1.15048e-120
0.6048 	-3.42842e-120
0.6055 	-2.45132e-120
0.6062 	-1.72212e-121
0.6069 	-3.96119e-123
0.6076 	-1.71228e-123
0.6083 	-1.54351e-123
0.609 	-1.0319e-121
0.6097 	-3.88103e-121
0.6104 	-3.47319e-121
0.6111 	-6.22619e-122
0.6118 	-5.97256e-124
0.6125 	-2.11994e-124
0.6132 	-1.91276e-124
0.6139 	-7.63339e-123
0.6146 	-4.24389e-122
0.6153 	-4.74037e-122
0.616 	-1.25808e-122
0.6167 	-8.56331e-125
0.6174 	-2.57063e-125
0.6181 	-2.32151e-125
0.6188 	-3.18148e-124
0.6195 	-4.47948e-123
0.6202 	-6.26232e-123
0.6209 	-2.09894e-123
0.6216 	-1.17772e-125
0.6223 	-3.05452e-126
0.623 	-2.76069e-126
0.6237 	-2.46687e-126
0.6244 	-4.54853e-124
0.6251 	-8.02824e-124
0.6258 	-3.15379e-124
0.6265 	-1.56205e-126
0.6272 	-3.56512e-127
0.6279 	-3.22533e-127
0.6286 	-2.88554e-127
0.6293 	-4.43119e-125
0.63 	-1.00351e-124
0.6307 	-4.42848e-125
0.6314 	-2.01041e-127
0.6321 	-5.23409e-128
0.6328 	-3.70166e-128
0.6335 	-3.31533e-128
0.6342 	-4.09489e-126
0.6349 	-1.04153e-125
0.6356 	-5.8981e-126
0.6363 	-2.51305e-128
0.637 	-8.27022e-129
0.6377 	-4.18942e-129
0.6384 	-3.7557e-129
0.6391 	-3.54859e-127
0.6398 	-1.0575e-126
0.6405 	-7.56124e-127
0.6412 	-5.31489e-128
0.6419 	-1.18639e-129
0.6426 	-4.68577e-130
0.6433 	-4.20529e-130
0.644 	-2.79849e-128
0.6447 	-1.05251e-127
0.6454 	-9.4192e-128
0.6461 	-1.68888e-128
0.6468 	-1.60045e-130
0.6475 	-5.1699e-131
0.6482 	-4.64537e-131
0.6489 	-1.83639e-129
0.6496 	-1.02086e-128
0.6503 	-1.14029e-128
0.651 	-3.02671e-129
0.6517 	-2.06031e-131
0.6524 	-5.64615e-132
0.6531 	-5.07848e-132
0.6538 	-6.8703e-131
0.6545 	-9.66804e-130
0.6552 	-1.35158e-129
0.6559 	-4.53053e-130
0.6566 	-2.56392e-132
0.6573 	-6.10295e-133
0.658 	-5.49647e-133
0.6587 	-4.88999e-133
0.6594 	-8.90535e-131
0.6601 	-1.57177e-130
0.6608 	-6.17498e-131
0.6615 	-3.10391e-133
0.6622 	-6.55212e-134
0.6629 	-5.90947e-134
0.6636 	-5.26681e-134
0.6643 	-7.954e-132
0.665 	-1.8012e-131
0.6657 	-7.94921e-132
0.6664 	-3.68185e-134
0.6671 	-9.17169e-135
0.6678 	-6.35432e-135
0.6685 	-5.6763e-135
0.6692 	-6.87294e-133
0.6699 	-1.74796e-132
0.6706 	-9.89909e-133
0.6713 	-4.32184e-135
0.672 	-1.39584e-135
0.6727 	-6.89871e-136
0.6734 	-6.18125e-136
0.6741 	-5.70275e-134
0.6748 	-1.69917e-133
0.6755 	-1.21497e-133
0.6762 	-8.55314e-135
0.6769 	-1.95595e-136
0.6776 	-7.67203e-137
0.6783 	-6.9017e-137
0.679 	-4.46377e-135
0.6797 	-1.67829e-134
0.6804 	-1.50196e-134
0.6811 	-2.69455e-135
0.6818 	-2.66507e-137
0.6825 	-8.91314e-138
0.6832 	-8.06291e-138
0.6839 	-3.08759e-136
0.6846 	-1.71512e-135
0.6853 	-1.91573e-135
0.686 	-5.0869e-136
0.6867 	-3.67368e-138
0.6874 	-1.10905e-138
0.6881 	-1.0104e-138
0.6888 	-1.32123e-137
0.6895 	-1.85318e-136
0.6902 	-2.59053e-136
0.6909 	-8.68625e-137
0.6916 	-5.29324e-139
0.6923 	-1.49269e-139
0.693 	-1.36853e-139
0.6937 	-1.24437e-139
0.6944 	-2.116e-137
0.6951 	-3.73403e-137
0.6958 	-1.46738e-137
0.6965 	-7.98689e-140
0.6972 	-2.04727e-140
0.6979 	-1.87595e-140
0.6986 	-1.70463e-140
0.6993 	-1.54567e-140
0.7 	-1.39006e-140
