0 	1
0.0007 	1
0.0014 	1
0.0021 	1
0.0028 	1
0.0035 	1
0.0042 	1
0.0049 	1
0.0056 	1
0.0063 	1
0.007 	1
0.0077 	1
0.0084 	1
0.0091 	1
0.0098 	1
0.0105 	1
0.0112 	1
0.0119 	1
0.0126 	1
0.0133 	1
0.014 	1
0.0147 	1
0.0154 	1
0.0161 	1
0.0168 	1
0.0175 	1
0.0182 	1
0.0189 	1
0.0196 	1
0.0203 	1
0.021 	1
0.0217 	1
0.0224 	1
0.0231 	1
0.0238 	1
0.0245 	1
0.0252 	1
0.0259 	1
0.0266 	1
0.0273 	1
0.028 	1
0.0287 	1
0.0294 	1
0.0301 	1
0.0308 	1
0.0315 	1
0.0322 	1
0.0329 	1
0.0336 	1
0.0343 	1
0.035 	1
0.0357 	1
0.0364 	1
0.0371 	1
0.0378 	1
0.0385 	1
0.0392 	1
0.0399 	1
0.0406 	1
0.0413 	1
0.042 	1
0.0427 	1
0.0434 	1
0.0441 	1
0.0448 	1
0.0455 	1
0.0462 	1
0.0469 	1
0.0476 	1
0.0483 	1
0.049 	1
0.0497 	1
0.0504 	1
0.0511 	1
0.0518 	1
0.0525 	1
0.0532 	1
0.0539 	1
0.0546 	1
0.0553 	1
0.056 	1
0.0567 	1
0.0574 	1
0.0581 	1
0.0588 	1
0.0595 	1
0.0602 	1
0.0609 	1
0.0616 	1
0.0623 	1
0.063 	1
0.0637 	1
0.0644 	1
0.0651 	1
0.0658 	1
0.0665 	1
0.0672 	1
0.0679 	1
0.0686 	1
0.0693 	1
0.07 	1
0.0707 	1
0.0714 	1
0.0721 	1
0.0728 	1
0.0735 	1
0.0742 	1
0.0749 	1
0.0756 	1
0.0763 	1
0.077 	1
0.0777 	1
0.0784 	1
0.0791 	1
0.0798 	1
0.0805 	1
0.0812 	1
0.0819 	1
0.0826 	1
0.0833 	1
0.084 	1
0.0847 	1
0.0854 	1
0.0861 	1
0.0868 	1
0.0875 	1
0.0882 	1
0.0889 	1
0.0896 	1
0.0903 	1
0.091 	1
0.0917 	1
0.0924 	1
0.0931 	1
0.0938 	1
0.0945 	1
0.0952 	1
0.0959 	1
0.0966 	1
0.0973 	1
0.098 	1
0.0987 	1
0.0994 	1
0.1001 	1
0.1008 	1
0.1015 	1
0.1022 	1
0.1029 	1
0.1036 	1
0.1043 	1
0.105 	1
0.1057 	1
0.1064 	1
0.1071 	1
0.1078 	1
0.1085 	1
0.1092 	1
0.1099 	1
0.1106 	1
0.1113 	1
0.112 	1
0.1127 	1
0.1134 	1
0.1141 	1
0.1148 	1
0.1155 	1
0.1162 	1
0.1169 	1
0.1176 	1
0.1183 	1
0.119 	1
0.1197 	1
0.1204 	1
0.1211 	1
0.1218 	1
0.1225 	1
0.1232 	1
0.1239 	1
0.1246 	1
0.1253 	1
0.126 	1
0.1267 	1
0.1274 	1
0.1281 	1
0.1288 	1
0.1295 	1
0.1302 	1
0.1309 	1
0.1316 	1
0.1323 	1
0.133 	1
0.1337 	1
0.1344 	1
0.1351 	1
0.1358 	1
0.1365 	1
0.1372 	1
0.1379 	1
0.1386 	1
0.1393 	1
0.14 	1
0.1407 	1
0.1414 	1
0.1421 	1
0.1428 	1
0.1435 	1
0.1442 	1
0.1449 	1
0.1456 	1
0.1463 	1
0.147 	1
0.1477 	1
0.1484 	1
0.1491 	1
0.1498 	1
0.1505 	1
0.1512 	1
0.1519 	1
0.1526 	1
0.1533 	1
0.154 	1
0.1547 	1
0.1554 	1
0.1561 	1
0.1568 	1
0.1575 	1
0.1582 	1
0.1589 	1
0.1596 	1
0.1603 	1
0.161 	1
0.1617 	1
0.1624 	1
0.1631 	1
0.1638 	1
0.1645 	1
0.1652 	1
0.1659 	1
0.1666 	1
0.1673 	1
0.168 	1
0.1687 	1
0.1694 	1
0.1701 	1
0.1708 	1
0.1715 	1
0.1722 	1
0.1729 	1
0.1736 	1
0.1743 	1
0.175 	1
0.1757 	1
0.1764 	1
0.1771 	1
0.1778 	1
0.1785 	1
0.1792 	1
0.1799 	1
0.1806 	1
0.1813 	1
0.182 	1
0.1827 	1
0.1834 	1
0.1841 	1
0.1848 	1
0.1855 	1
0.1862 	1
0.1869 	1
0.1876 	1
0.1883 	1
0.189 	1
0.1897 	1
0.1904 	1
0.1911 	1
0.1918 	1
0.1925 	1
0.1932 	1
0.1939 	1
0.1946 	1
0.1953 	1
0.196 	1
0.1967 	1
0.1974 	1
0.1981 	1
0.1988 	1
0.1995 	1
0.2002 	1
0.2009 	1
0.2016 	1
0.2023 	1
0.203 	1
0.2037 	1
0.2044 	1
0.2051 	1
0.2058 	1
0.2065 	1
0.2072 	1
0.2079 	1
0.2086 	1
0.2093 	1
0.21 	1
0.2107 	1
0.2114 	1
0.2121 	1
0.2128 	1
0.2135 	1
0.2142 	1
0.2149 	1
0.2156 	1
0.2163 	1
0.217 	1
0.2177 	1
0.2184 	1
0.2191 	1
0.2198 	1
0.2205 	1
0.2212 	1
0.2219 	1
0.2226 	1
0.2233 	1
0.224 	1
0.2247 	1
0.2254 	1
0.2261 	1
0.2268 	1
0.2275 	1
0.2282 	1
0.2289 	1
0.2296 	1
0.2303 	1
0.231 	1
0.2317 	1
0.2324 	1
0.2331 	1
0.2338 	1
0.2345 	1
0.2352 	1
0.2359 	1
0.2366 	1
0.2373 	1
0.238 	1
0.2387 	1
0.2394 	1
0.2401 	1
0.2408 	1
0.2415 	1
0.2422 	1
0.2429 	1
0.2436 	1
0.2443 	1
0.245 	1
0.2457 	1
0.2464 	1
0.2471 	1
0.2478 	1
0.2485 	1
0.2492 	1
0.2499 	1
0.2506 	1
0.2513 	1
0.252 	1
0.2527 	1
0.2534 	1
0.2541 	1
0.2548 	1
0.2555 	1
0.2562 	1
0.2569 	1
0.2576 	1
0.2583 	1
0.259 	1
0.2597 	0.999999
0.2604 	0.999999
0.2611 	0.999999
0.2618 	0.999998
0.2625 	0.999997
0.2632 	0.999996
0.2639 	0.999994
0.2646 	0.999992
0.2653 	0.99999
0.266 	0.999988
0.2667 	0.999976
0.2674 	0.999959
0.2681 	0.999942
0.2688 	0.999924
0.2695 	0.999891
0.2702 	0.99986
0.2709 	0.99983
0.2716 	0.999671
0.2723 	0.99939
0.273 	0.999112
0.2737 	0.998833
0.2744 	0.998315
0.2751 	0.997785
0.2758 	0.997288
0.2765 	0.994445
0.2772 	0.98752
0.2779 	0.980675
0.2786 	0.973829
0.2793 	0.961823
0.28 	0.948409
0.2807 	0.935926
0.2814 	0.915942
0.2821 	0.868668
0.2828 	0.821609
0.2835 	0.77455
0.2842 	0.704987
0.2849 	0.622922
0.2856 	0.54312
0.2863 	0.464998
0.287 	0.403744
0.2877 	0.342387
0.2884 	0.281031
0.2891 	0.228787
0.2898 	0.185657
0.2905 	0.143948
0.2912 	0.102808
0.2919 	0.0791637
0.2926 	0.0565282
0.2933 	0.0338928
0.294 	0.0180221
0.2947 	0.0143277
0.2954 	0.0107762
0.2961 	0.00733197
0.2968 	0.00523955
0.2975 	0.00345871
0.2982 	0.00167788
0.2989 	0.000266857
0.2996 	0.000211748
0.3003 	0.00015889
0.301 	0.000109033
0.3017 	7.56012e-05
0.3024 	5.00459e-05
0.3031 	2.43773e-05
0.3038 	5.34521e-07
0.3045 	4.24466e-07
0.3052 	3.1854e-07
0.3059 	2.22931e-07
0.3066 	1.52206e-07
0.3073 	1.03297e-07
0.308 	5.34832e-08
0.3087 	3.66913e-09
0.3094 	9.11073e-11
0.3101 	6.98748e-11
0.3108 	5.19725e-11
0.3115 	3.75169e-11
0.3122 	2.85575e-11
0.3129 	1.9178e-11
0.3136 	9.79856e-12
0.3143 	8.00798e-12
0.315 	8.28701e-12
0.3157 	8.55407e-12
0.3164 	8.83895e-12
0.3171 	9.19232e-12
0.3178 	9.5491e-12
0.3185 	9.90589e-12
0.3192 	1.03173e-11
0.3199 	1.0759e-11
0.3206 	1.11829e-11
0.3213 	1.15888e-11
0.322 	1.18044e-11
0.3227 	1.20281e-11
0.3234 	1.22518e-11
0.3241 	1.23714e-11
0.3248 	1.23869e-11
0.3255 	1.23936e-11
0.3262 	1.23969e-11
0.3269 	1.2268e-11
0.3276 	1.21376e-11
0.3283 	1.20072e-11
0.329 	1.18252e-11
0.3297 	1.15501e-11
0.3304 	1.12783e-11
0.3311 	1.10089e-11
0.3318 	1.05794e-11
0.3325 	1.01134e-11
0.3332 	9.64752e-12
0.3339 	9.13761e-12
0.3346 	8.4664e-12
0.3353 	7.80631e-12
0.336 	7.16106e-12
0.3367 	6.52948e-12
0.3374 	5.89736e-12
0.3381 	5.26438e-12
0.3388 	4.63281e-12
0.3395 	4.01966e-12
0.3402 	3.41402e-12
0.3409 	2.82721e-12
0.3416 	2.3432e-12
0.3423 	1.94861e-12
0.343 	1.5498e-12
0.3437 	1.15099e-12
0.3444 	9.42259e-13
0.3451 	7.49649e-13
0.3458 	5.66015e-13
0.3465 	4.1391e-13
0.3472 	3.13296e-13
0.3479 	2.09395e-13
0.3486 	1.05494e-13
0.3493 	7.07751e-14
0.35 	5.49235e-14
0.3507 	4.02888e-14
0.3514 	2.73125e-14
0.3521 	1.99188e-14
0.3528 	1.19657e-14
0.3535 	4.01259e-15
0.3542 	1.02413e-15
0.3549 	7.93738e-16
0.3556 	5.84293e-16
0.3563 	3.86473e-16
0.357 	2.87212e-16
0.3577 	1.73138e-16
0.3584 	5.90646e-17
0.3591 	1.82599e-18
0.3598 	1.42118e-18
0.3605 	1.05506e-18
0.3612 	7.04423e-19
0.3619 	5.31174e-19
0.3626 	3.30302e-19
0.3633 	1.29431e-19
0.364 	2.79079e-22
0.3647 	2.18525e-22
0.3654 	1.63348e-22
0.3661 	1.12204e-22
0.3668 	8.45703e-23
0.3675 	5.42161e-23
0.3682 	2.38619e-23
0.3689 	1.18813e-26
0.3696 	9.38167e-27
0.3703 	7.04883e-27
0.371 	4.93834e-27
0.3717 	3.63597e-27
0.3724 	2.42295e-27
0.3731 	1.16686e-27
0.3738 	4.96994e-31
0.3745 	3.95564e-31
0.3752 	2.98621e-31
0.3759 	2.12894e-31
0.3766 	1.52713e-31
0.3773 	1.05785e-31
0.378 	5.47259e-32
0.3787 	3.66719e-33
0.3794 	1.66321e-35
0.3801 	1.26122e-35
0.3808 	9.13234e-36
0.3815 	6.39216e-36
0.3822 	4.58404e-36
0.3829 	2.5142e-36
0.3836 	4.44359e-37
0.3843 	7.02638e-40
0.385 	5.35005e-40
0.3857 	3.92871e-40
0.3864 	2.68823e-40
0.3871 	1.98854e-40
0.3878 	1.14506e-40
0.3885 	3.01579e-41
0.3892 	2.97139e-44
0.3899 	2.28552e-44
0.3906 	1.68905e-44
0.3913 	1.13209e-44
0.392 	8.6127e-45
0.3927 	5.16817e-45
0.3934 	1.72363e-45
0.3941 	1.24536e-48
0.3948 	9.66728e-49
0.3955 	7.18587e-49
0.3962 	4.82641e-49
0.3969 	3.6899e-49
0.3976 	2.29392e-49
0.3983 	8.97954e-50
0.399 	5.12596e-53
0.3997 	4.01276e-53
0.4004 	2.99821e-53
0.4011 	2.05766e-53
0.4018 	1.54985e-53
0.4025 	9.93567e-54
0.4032 	4.37289e-54
0.4039 	2.0625e-57
0.4046 	1.62727e-57
0.4053 	1.22137e-57
0.406 	8.54607e-58
0.4067 	6.27341e-58
0.4074 	4.18363e-58
0.4081 	2.01476e-58
0.4088 	8.11013e-62
0.4095 	6.44566e-62
0.4102 	4.85708e-62
0.4109 	3.45825e-62
0.4116 	2.47308e-62
0.4123 	1.71315e-62
0.413 	8.86258e-63
0.4137 	5.93672e-64
0.4144 	2.4997e-66
0.4151 	1.89013e-66
0.4158 	1.3671e-66
0.4165 	9.54467e-67
0.4172 	6.84155e-67
0.4179 	3.75232e-67
0.4186 	6.63094e-68
0.4193 	9.52042e-71
0.42 	7.2202e-71
0.4207 	5.29736e-71
0.4214 	3.61769e-71
0.4221 	2.67412e-71
0.4228 	1.53981e-71
0.4235 	4.05512e-72
0.4242 	2.93673e-75
0.4249 	1.12588e-75
0.4256 	1.10779e-75
0.4263 	1.34799e-75
0.427 	1.02382e-75
0.4277 	6.13514e-76
0.4284 	2.03203e-76
0.4291 	-1.20808e-75
0.4298 	-3.62033e-75
0.4305 	-2.58799e-75
0.4312 	-1.77812e-76
0.4319 	-7.27213e-78
0.4326 	-7.71479e-78
0.4333 	-8.15745e-78
0.434 	-1.05798e-75
0.4347 	-3.99665e-75
0.4354 	-3.57728e-75
0.4361 	-6.39399e-76
0.4368 	-1.01672e-77
0.4375 	-1.02807e-77
0.4382 	-1.03943e-77
0.4389 	-6.09319e-76
0.4396 	-3.40382e-75
0.4403 	-3.803e-75
0.441 	-1.0084e-75
0.4417 	-1.01101e-77
0.4424 	-9.99528e-78
0.4431 	-9.91812e-78
0.4438 	-1.77537e-76
0.4445 	-2.52505e-75
0.4452 	-3.53099e-75
0.4459 	-1.18304e-75
0.4466 	-8.739e-78
0.4473 	-8.45236e-78
0.448 	-8.3038e-78
0.4487 	-8.15523e-78
0.4494 	-1.6896e-75
0.4501 	-2.98293e-75
0.4508 	-1.17161e-75
0.4515 	-6.93498e-78
0.4522 	-6.54852e-78
0.4529 	-6.38932e-78
0.4536 	-6.23012e-78
0.4543 	-1.02891e-75
0.455 	-2.33053e-75
0.4557 	-1.02839e-75
0.4564 	-5.15465e-78
0.4571 	-4.73754e-78
0.4578 	-4.59659e-78
0.4585 	-4.45565e-78
0.4592 	-5.68901e-76
0.4599 	-1.447e-75
0.4606 	-8.19423e-76
0.4613 	-3.62003e-78
0.462 	-3.22791e-78
0.4627 	-3.1165e-78
0.4634 	-3.00509e-78
0.4641 	-2.82139e-76
0.4648 	-8.40513e-76
0.4655 	-6.00983e-76
0.4662 	-4.22904e-77
0.4669 	-2.08117e-78
0.4676 	-2.00034e-78
0.4683 	-1.91951e-78
0.469 	-1.21782e-76
0.4697 	-4.57539e-76
0.4704 	-4.09448e-76
0.4711 	-7.34696e-77
0.4718 	-1.27371e-78
0.4725 	-1.21917e-78
0.4732 	-1.16462e-78
0.4739 	-4.21418e-77
0.4746 	-2.33565e-76
0.4753 	-2.6085e-76
0.476 	-6.9283e-77
0.4767 	-7.59805e-79
0.4774 	-7.07218e-79
0.4781 	-6.72715e-79
0.4788 	-8.04942e-78
0.4795 	-1.11766e-76
0.4802 	-1.56191e-76
0.4809 	-5.23868e-77
0.4816 	-4.34418e-79
0.4823 	-3.91196e-79
0.483 	-3.70629e-79
0.4837 	-3.50062e-79
0.4844 	-5.0045e-77
0.4851 	-8.82657e-77
0.4858 	-3.46962e-77
0.4865 	-2.38057e-79
0.4872 	-2.0668e-79
0.4879 	-1.95082e-79
0.4886 	-1.83483e-79
0.4893 	-2.08866e-77
0.49 	-4.72391e-77
0.4907 	-2.0859e-77
0.4914 	-1.25153e-79
0.4921 	-1.04448e-79
0.4928 	-9.82413e-80
0.4935 	-9.20342e-80
0.4942 	-8.06419e-78
0.4949 	-2.04687e-77
0.4956 	-1.15961e-77
0.4963 	-6.31784e-80
0.497 	-5.05572e-80
0.4977 	-4.73969e-80
0.4984 	-4.42365e-80
0.4991 	-2.83841e-78
0.4998 	-8.42989e-78
0.5005 	-6.02849e-78
0.5012 	-4.29944e-79
0.5019 	-2.34686e-80
0.5026 	-2.19344e-80
0.5033 	-2.04002e-80
0.504 	-8.82803e-79
0.5047 	-3.30027e-78
0.5054 	-2.95301e-78
0.5061 	-5.3221e-79
0.5068 	-1.04615e-80
0.5075 	-9.74843e-81
0.5082 	-9.03697e-81
0.5089 	-2.23629e-79
0.5096 	-1.22765e-78
0.5103 	-1.37044e-78
0.511 	-3.64912e-79
0.5117 	-4.68589e-81
0.5124 	-4.16553e-81
0.5131 	-3.84981e-81
0.5138 	-3.2211e-80
0.5145 	-4.33354e-79
0.5152 	-6.05087e-79
0.5159 	-2.03295e-79
0.5166 	-2.02505e-81
0.5173 	-1.71321e-81
0.518 	-1.57893e-81
0.5187 	-1.44464e-81
0.5194 	-1.44799e-79
0.5201 	-2.5504e-79
0.5208 	-1.0038e-79
0.5215 	-8.44757e-82
0.5222 	-6.78917e-82
0.5229 	-6.24096e-82
0.5236 	-5.69275e-82
0.5243 	-4.5592e-80
0.525 	-1.02908e-79
0.5257 	-4.54851e-80
0.5264 	-3.40329e-82
0.5271 	-2.59505e-82
0.5278 	-2.37992e-82
0.5285 	-2.16479e-82
0.5292 	-1.34193e-80
0.5299 	-3.39688e-80
0.5306 	-1.92555e-80
0.5313 	-1.32486e-82
0.532 	-9.57718e-83
0.5327 	-8.76463e-83
0.5334 	-7.95207e-83
0.5341 	-3.63729e-81
0.5348 	-1.07609e-80
0.5355 	-7.69717e-81
0.5362 	-5.58486e-82
0.5369 	-3.41609e-83
0.5376 	-3.12031e-83
0.5383 	-2.82454e-83
0.539 	-8.80045e-82
0.5397 	-3.27039e-81
0.5404 	-2.92585e-81
0.5411 	-5.30158e-82
0.5418 	-1.18261e-83
0.5425 	-1.07493e-83
0.5432 	-9.71042e-84
0.5439 	-1.75442e-82
0.5446 	-9.52656e-82
0.5453 	-1.0629e-81
0.546 	-2.8385e-82
0.5467 	-4.21564e-84
0.5474 	-3.58663e-84
0.5481 	-3.23415e-84
0.5488 	-2.0416e-83
0.5495 	-2.65536e-82
0.5502 	-3.70413e-82
0.5509 	-1.24685e-82
0.5516 	-1.45661e-84
0.5523 	-1.16018e-84
0.553 	-1.04451e-84
0.5537 	-9.28842e-85
0.5544 	-7.06163e-83
0.5551 	-1.242e-82
0.5558 	-4.89484e-83
0.5565 	-4.88068e-85
0.5572 	-3.64155e-85
0.5579 	-3.27405e-85
0.5586 	-2.90655e-85
0.5593 	-1.78311e-83
0.56 	-4.01652e-83
0.5607 	-1.77704e-83
0.5614 	-1.58675e-85
0.5621 	-1.11008e-85
0.5628 	-9.96909e-86
0.5635 	-8.83739e-86
0.5642 	-4.23968e-84
0.5649 	-1.07035e-83
0.5656 	-6.07081e-84
0.5663 	-5.00828e-86
0.567 	-3.28926e-86
0.5677 	-2.95114e-86
0.5684 	-2.61302e-86
0.5691 	-9.34945e-85
0.5698 	-2.75595e-84
0.5705 	-1.97169e-84
0.5712 	-1.45335e-85
0.5719 	-9.48159e-87
0.5726 	-8.50049e-87
0.5733 	-7.51938e-87
0.574 	-1.85377e-85
0.5747 	-6.8514e-85
0.5754 	-6.12875e-85
0.5761 	-1.11589e-85
0.5768 	-2.68134e-87
0.5775 	-2.3843e-87
0.5782 	-2.10756e-87
0.5789 	-3.0543e-86
0.5796 	-1.64255e-85
0.5803 	-1.83177e-85
0.581 	-4.9043e-86
0.5817 	-7.98389e-88
0.5824 	-6.51736e-88
0.5831 	-5.75789e-88
0.5838 	-2.99823e-87
0.5845 	-3.78988e-86
0.5852 	-5.28238e-86
0.5859 	-1.78098e-86
0.5866 	-2.31006e-88
0.5873 	-1.73739e-88
0.588 	-1.53441e-88
0.5887 	-1.33144e-88
0.5894 	-8.38925e-87
0.5901 	-1.4737e-86
0.5908 	-5.81446e-87
0.5915 	-6.50018e-89
0.5922 	-4.52003e-89
0.5929 	-3.99133e-89
0.5936 	-3.46263e-89
0.5943 	-1.77255e-87
0.595 	-3.9859e-87
0.5957 	-1.76494e-87
0.5964 	-1.78022e-89
0.5971 	-1.14842e-89
0.5978 	-1.01409e-89
0.5985 	-8.79764e-90
0.5992 	-3.54453e-88
0.5999 	-8.92885e-88
0.6006 	-5.06662e-88
0.6013 	-4.74917e-90
0.602 	-2.85137e-90
0.6027 	-2.51823e-90
0.6034 	-2.18508e-90
0.6041 	-6.60646e-89
0.6048 	-1.94157e-88
0.6055 	-1.38929e-88
0.6062 	-1.03738e-89
0.6069 	-6.92262e-91
0.6076 	-6.11553e-91
0.6083 	-5.30843e-91
0.609 	-1.11276e-89
0.6097 	-4.09439e-89
0.6104 	-3.66213e-89
0.6111 	-6.6947e-90
0.6118 	-1.66556e-91
0.6125 	-1.45326e-91
0.6132 	-1.26213e-91
0.6139 	-1.56711e-90
0.6146 	-8.36136e-90
0.6153 	-9.32094e-90
0.616 	-2.50097e-90
0.6167 	-4.30575e-92
0.6174 	-3.38112e-92
0.6181 	-2.93838e-92
0.6188 	-1.33584e-91
0.6195 	-1.64992e-90
0.6202 	-2.2981e-90
0.6209 	-7.759e-91
0.6216 	-1.082e-92
0.6223 	-7.70569e-93
0.623 	-6.70191e-93
0.6237 	-5.69813e-93
0.6244 	-3.13538e-91
0.6251 	-5.50206e-91
0.6258 	-2.173e-91
0.6265 	-2.64695e-93
0.6272 	-1.72111e-93
0.6279 	-1.49825e-93
0.6286 	-1.27538e-93
0.6293 	-5.70798e-92
0.63 	-1.28164e-91
0.6307 	-5.67934e-92
0.6314 	-6.31199e-94
0.6321 	-3.76926e-94
0.6328 	-3.28442e-94
0.6335 	-2.79959e-94
0.6342 	-9.86954e-93
0.6349 	-2.48136e-92
0.6356 	-1.40866e-92
0.6363 	-1.46886e-94
0.637 	-8.09736e-95
0.6377 	-7.06336e-95
0.6384 	-6.02935e-95
0.6391 	-1.59623e-93
0.6398 	-4.67842e-93
0.6405 	-3.34826e-93
0.6412 	-2.53157e-94
0.6419 	-1.70708e-95
0.6426 	-1.49079e-95
0.6433 	-1.2745e-95
0.644 	-2.34177e-94
0.6447 	-8.58079e-94
0.6454 	-7.67429e-94
0.6461 	-1.40865e-94
0.6468 	-3.59814e-96
0.6475 	-3.08915e-96
0.6482 	-2.64521e-96
0.6489 	-2.88661e-95
0.6496 	-1.52858e-94
0.6503 	-1.7034e-94
0.651 	-4.58093e-95
0.6517 	-8.30784e-97
0.6524 	-6.28696e-97
0.6531 	-5.39245e-97
0.6538 	-2.18487e-96
0.6545 	-2.63862e-95
0.6552 	-3.67276e-95
0.6559 	-1.24191e-95
0.6566 	-1.86132e-97
0.6573 	-1.2571e-97
0.658 	-1.0801e-97
0.6587 	-9.03094e-98
0.6594 	-4.39846e-96
0.6601 	-7.71041e-96
0.6608 	-3.04858e-96
0.6615 	-4.05706e-98
0.6622 	-2.47042e-98
0.6629 	-2.12632e-98
0.6636 	-1.78222e-98
0.6643 	-7.04297e-97
0.665 	-1.57893e-96
0.6657 	-7.00283e-97
0.6664 	-8.62062e-99
0.6671 	-4.77289e-99
0.6678 	-4.11546e-99
0.6685 	-3.45803e-99
0.6692 	-1.07398e-97
0.6699 	-2.69447e-97
0.6706 	-1.53048e-97
0.6713 	-1.78858e-99
0.672 	-9.06859e-100
0.6727 	-7.8337e-100
0.6734 	-6.59882e-100
0.6741 	-1.53612e-98
0.6748 	-4.48872e-98
0.6755 	-3.21329e-98
0.6762 	-2.46635e-99
0.6769 	-1.69507e-100
0.6776 	-1.46696e-100
0.6783 	-1.23884e-100
0.679 	-1.99936e-99
0.6797 	-7.29175e-99
0.6804 	-6.52104e-99
0.6811 	-1.20302e-99
0.6818 	-3.19219e-101
0.6825 	-2.70355e-101
0.6832 	-2.28897e-101
0.6839 	-2.19689e-100
0.6846 	-1.15329e-99
0.6853 	-1.28469e-99
0.686 	-3.46485e-100
0.6867 	-6.7203e-102
0.6874 	-4.90621e-102
0.6881 	-4.16462e-102
0.6888 	-1.50595e-101
0.6895 	-1.77228e-100
0.6902 	-2.46496e-100
0.6909 	-8.35139e-101
0.6916 	-1.36881e-102
0.6923 	-8.77403e-103
0.693 	-7.46765e-103
0.6937 	-6.16127e-103
0.6944 	-2.63845e-101
0.6951 	-4.61933e-101
0.6958 	-1.82909e-101
0.6965 	-2.83359e-103
0.6972 	-1.84346e-103
0.6979 	-1.64985e-103
0.6986 	-1.45624e-103
0.6993 	-6.47136e-102
0.7 	-1.45276e-101
