0 	1
0.0007 	1
0.0014 	1
0.0021 	1
0.0028 	1
0.0035 	1
0.0042 	1
0.0049 	1
0.0056 	1
0.0063 	1
0.007 	1
0.0077 	1
0.0084 	1
0.0091 	1
0.0098 	1
0.0105 	1
0.0112 	1
0.0119 	1
0.0126 	1
0.0133 	1
0.014 	1
0.0147 	1
0.0154 	1
0.0161 	1
0.0168 	1
0.0175 	1
0.0182 	1
0.0189 	1
0.0196 	1
0.0203 	1
0.021 	1
0.0217 	1
0.0224 	1
0.0231 	1
0.0238 	1
0.0245 	1
0.0252 	1
0.0259 	1
0.0266 	1
0.0273 	1
0.028 	1
0.0287 	1
0.0294 	1
0.0301 	1
0.0308 	1
0.0315 	1
0.0322 	1
0.0329 	1
0.0336 	1
0.0343 	1
0.035 	1
0.0357 	1
0.0364 	1
0.0371 	1
0.0378 	1
0.0385 	1
0.0392 	1
0.0399 	1
0.0406 	1
0.0413 	1
0.042 	1
0.0427 	1
0.0434 	1
0.0441 	1
0.0448 	1
0.0455 	1
0.0462 	1
0.0469 	1
0.0476 	1
0.0483 	1
0.049 	1
0.0497 	1
0.0504 	1
0.0511 	1
0.0518 	1
0.0525 	1
0.0532 	1
0.0539 	1
0.0546 	1
0.0553 	1
0.056 	1
0.0567 	1
0.0574 	1
0.0581 	1
0.0588 	1
0.0595 	1
0.0602 	1
0.0609 	1
0.0616 	1
0.0623 	1
0.063 	1
0.0637 	1
0.0644 	1
0.0651 	1
0.0658 	1
0.0665 	1
0.0672 	1
0.0679 	1
0.0686 	1
0.0693 	1
0.07 	1
0.0707 	1
0.0714 	1
0.0721 	1
0.0728 	1
0.0735 	1
0.0742 	1
0.0749 	1
0.0756 	1
0.0763 	1
0.077 	1
0.0777 	1
0.0784 	1
0.0791 	1
0.0798 	1
0.0805 	1
0.0812 	1
0.0819 	1
0.0826 	1
0.0833 	1
0.084 	1
0.0847 	1
0.0854 	1
0.0861 	1
0.0868 	1
0.0875 	1
0.0882 	1
0.0889 	1
0.0896 	1
0.0903 	1
0.091 	1
0.0917 	1
0.0924 	1
0.0931 	1
0.0938 	1
0.0945 	1
0.0952 	1
0.0959 	1
0.0966 	1
0.0973 	1
0.098 	1
0.0987 	1
0.0994 	1
0.1001 	1
0.1008 	1
0.1015 	1
0.1022 	1
0.1029 	1
0.1036 	1
0.1043 	1
0.105 	1
0.1057 	1
0.1064 	1
0.1071 	1
0.1078 	1
0.1085 	1
0.1092 	1
0.1099 	1
0.1106 	1
0.1113 	1
0.112 	1
0.1127 	1
0.1134 	1
0.1141 	1
0.1148 	1
0.1155 	1
0.1162 	1
0.1169 	1
0.1176 	1
0.1183 	1
0.119 	1
0.1197 	1
0.1204 	1
0.1211 	1
0.1218 	1
0.1225 	1
0.1232 	1
0.1239 	1
0.1246 	1
0.1253 	1
0.126 	1
0.1267 	1
0.1274 	1
0.1281 	1
0.1288 	1
0.1295 	1
0.1302 	1
0.1309 	1
0.1316 	1
0.1323 	1
0.133 	1
0.1337 	1
0.1344 	1
0.1351 	1
0.1358 	1
0.1365 	1
0.1372 	1
0.1379 	1
0.1386 	1
0.1393 	1
0.14 	1
0.1407 	1
0.1414 	1
0.1421 	1
0.1428 	1
0.1435 	1
0.1442 	1
0.1449 	1
0.1456 	1
0.1463 	1
0.147 	1
0.1477 	1
0.1484 	1
0.1491 	1
0.1498 	1
0.1505 	1
0.1512 	1
0.1519 	1
0.1526 	1
0.1533 	1
0.154 	1
0.1547 	1
0.1554 	1
0.1561 	1
0.1568 	1
0.1575 	1
0.1582 	1
0.1589 	1
0.1596 	1
0.1603 	1
0.161 	1
0.1617 	1
0.1624 	1
0.1631 	1
0.1638 	1
0.1645 	1
0.1652 	1
0.1659 	1
0.1666 	1
0.1673 	1
0.168 	1
0.1687 	1
0.1694 	1
0.1701 	1
0.1708 	1
0.1715 	1
0.1722 	1
0.1729 	1
0.1736 	1
0.1743 	1
0.175 	1
0.1757 	1
0.1764 	1
0.1771 	1
0.1778 	1
0.1785 	1
0.1792 	1
0.1799 	1
0.1806 	1
0.1813 	1
0.182 	1
0.1827 	1
0.1834 	1
0.1841 	1
0.1848 	1
0.1855 	1
0.1862 	1
0.1869 	1
0.1876 	1
0.1883 	1
0.189 	1
0.1897 	1
0.1904 	1
0.1911 	1
0.1918 	1
0.1925 	1
0.1932 	1
0.1939 	1
0.1946 	1
0.1953 	1
0.196 	1
0.1967 	1
0.1974 	1
0.1981 	1
0.1988 	1
0.1995 	1
0.2002 	1
0.2009 	1
0.2016 	1
0.2023 	1
0.203 	1
0.2037 	1
0.2044 	1
0.2051 	1
0.2058 	1
0.2065 	1
0.2072 	1
0.2079 	1
0.2086 	1
0.2093 	1
0.21 	1
0.2107 	1
0.2114 	1
0.2121 	1
0.2128 	1
0.2135 	1
0.2142 	1
0.2149 	1
0.2156 	1
0.2163 	1
0.217 	1
0.2177 	1
0.2184 	1
0.2191 	1
0.2198 	1
0.2205 	1
0.2212 	0.999999
0.2219 	0.999981
0.2226 	0.99996
0.2233 	0.999923
0.224 	0.999877
0.2247 	0.999817
0.2254 	0.999765
0.2261 	0.999718
0.2268 	0.998454
0.2275 	0.996858
0.2282 	0.994616
0.2289 	0.991831
0.2296 	0.98783
0.2303 	0.983988
0.231 	0.980357
0.2317 	0.96517
0.2324 	0.943563
0.2331 	0.918618
0.2338 	0.890271
0.2345 	0.845236
0.2352 	0.800522
0.2359 	0.75661
0.2366 	0.70409
0.2373 	0.64296
0.238 	0.581109
0.2387 	0.518443
0.2394 	0.439791
0.2401 	0.359909
0.2408 	0.280028
0.2415 	0.211491
0.2422 	0.163375
0.2429 	0.117031
0.2436 	0.0743067
0.2443 	0.0565358
0.245 	0.0455707
0.2457 	0.0338112
0.2464 	0.023015
0.2471 	0.0157515
0.2478 	0.00893599
0.2485 	0.00406285
0.2492 	0.00207811
0.2499 	0.00169807
0.2506 	0.00128983
0.2513 	0.000887967
0.252 	0.000630077
0.2527 	0.000376051
0.2534 	0.00020206
0.2541 	0.000105545
0.2548 	8.65079e-05
0.2555 	6.65011e-05
0.2562 	4.61064e-05
0.2569 	3.29236e-05
0.2576 	2.02955e-05
0.2583 	1.12252e-05
0.259 	5.30203e-06
0.2597 	4.36901e-06
0.2604 	3.39492e-06
0.2611 	2.39003e-06
0.2618 	1.68435e-06
0.2625 	1.06029e-06
0.2632 	5.8958e-07
0.2639 	2.47975e-07
0.2646 	2.05371e-07
0.2653 	1.61249e-07
0.266 	1.15103e-07
0.2667 	8.01692e-08
0.2674 	5.14643e-08
0.2681 	2.86569e-08
0.2688 	1.06793e-08
0.2695 	8.87475e-09
0.2702 	7.02443e-09
0.2709 	5.05967e-09
0.2716 	3.4676e-09
0.2723 	2.24823e-09
0.273 	1.22802e-09
0.2737 	4.2314e-10
0.2744 	3.08646e-10
0.2751 	2.46387e-10
0.2758 	1.78864e-10
0.2765 	1.20532e-10
0.2772 	7.87427e-11
0.2779 	4.19126e-11
0.2786 	1.47469e-11
0.2793 	7.71515e-12
0.28 	6.1748e-12
0.2807 	4.4966e-12
0.2814 	2.96342e-12
0.2821 	1.962e-12
0.2828 	1.02244e-12
0.2835 	3.33888e-13
0.2842 	7.79998e-14
0.2849 	6.24861e-14
0.2856 	4.59842e-14
0.2863 	2.98176e-14
0.287 	2.01532e-14
0.2877 	1.064e-14
0.2884 	3.65835e-15
0.2891 	1.52928e-16
0.2898 	1.23871e-16
0.2905 	9.26865e-17
0.2912 	6.06513e-17
0.2919 	4.08849e-17
0.2926 	2.20624e-17
0.2933 	8.47959e-18
0.294 	5.70607e-20
0.2947 	4.68277e-20
0.2954 	3.57343e-20
0.2961 	2.39954e-20
0.2968 	1.591e-20
0.2975 	8.82103e-21
0.2982 	3.65202e-21
0.2989 	3.09608e-23
0.2996 	2.54919e-23
0.3003 	1.97127e-23
0.301 	1.35197e-23
0.3017 	8.92228e-24
0.3024 	5.21134e-24
0.3031 	2.28974e-24
0.3038 	3.19193e-27
0.3045 	2.65845e-27
0.3052 	2.09767e-27
0.3059 	1.46862e-27
0.3066 	9.60072e-28
0.3073 	5.72014e-28
0.308 	2.56862e-28
0.3087 	1.73438e-29
0.3094 	1.98804e-31
0.3101 	1.60077e-31
0.3108 	1.14163e-31
0.3115 	7.42753e-32
0.3122 	4.52349e-32
0.3129 	2.04592e-32
0.3136 	3.6236e-33
0.3143 	1.39148e-35
0.315 	1.14345e-35
0.3157 	8.29177e-36
0.3164 	5.38696e-36
0.3171 	3.35437e-36
0.3178 	1.51288e-36
0.3185 	3.98914e-37
0.3192 	9.56235e-40
0.3199 	7.95178e-40
0.3206 	5.90743e-40
0.3213 	3.84202e-40
0.322 	2.44276e-40
0.3227 	1.08843e-40
0.3234 	3.63274e-41
0.3241 	6.41733e-44
0.3248 	5.39544e-44
0.3255 	4.10694e-44
0.3262 	2.7118e-44
0.3269 	1.73736e-44
0.3276 	7.95289e-45
0.3283 	2.97419e-45
0.329 	4.1523e-48
0.3297 	3.52609e-48
0.3304 	2.75017e-48
0.3311 	1.86198e-48
0.3318 	1.19103e-48
0.3325 	5.79326e-49
0.3332 	2.23943e-49
0.3339 	2.55842e-52
0.3346 	2.19207e-52
0.3353 	1.75162e-52
0.336 	1.2124e-52
0.3367 	7.76808e-53
0.3374 	3.98798e-53
0.3381 	1.5588e-53
0.3388 	1.48885e-56
0.3395 	1.28569e-56
0.3402 	1.05216e-56
0.3409 	7.42683e-57
0.3416 	4.77753e-57
0.3423 	2.57373e-57
0.343 	1.00459e-57
0.3437 	6.77319e-59
0.3444 	7.08388e-61
0.3451 	5.93422e-61
0.3458 	4.26278e-61
0.3465 	2.7573e-61
0.3472 	1.55052e-61
0.3479 	6.00053e-62
0.3486 	1.0623e-62
0.3493 	3.66227e-65
0.35 	3.13889e-65
0.3507 	2.29056e-65
0.3514 	1.49116e-65
0.3521 	8.71154e-66
0.3528 	3.32886e-66
0.3535 	8.77453e-67
0.3542 	1.7789e-69
0.3549 	1.53612e-69
0.3556 	1.15419e-69
0.3563 	7.56619e-70
0.357 	4.57292e-70
0.3577 	1.72103e-70
0.3584 	5.7426e-71
0.3591 	8.14242e-74
0.3598 	7.07937e-74
0.3605 	5.47163e-74
0.3612 	3.646e-74
0.3619 	2.25065e-74
0.3626 	8.88398e-75
0.3633 	3.26133e-75
0.364 	3.5252e-78
0.3647 	3.0844e-78
0.3654 	2.45024e-78
0.3661 	1.67106e-78
0.3668 	1.04312e-78
0.3675 	4.56429e-79
0.3682 	1.66908e-79
0.3689 	1.4061e-82
0.3696 	1.02997e-82
0.3703 	7.66216e-83
0.371 	6.52304e-83
0.3717 	4.57264e-83
0.3724 	2.1715e-83
0.3731 	7.84545e-84
0.3738 	-1.02677e-84
0.3745 	-1.52727e-83
0.3752 	-2.13786e-83
0.3759 	-7.13482e-84
0.3766 	-1.13631e-86
0.3773 	-8.44531e-87
0.378 	-7.1719e-87
0.3787 	-7.47468e-87
0.3794 	-4.91756e-84
0.3801 	-8.69453e-84
0.3808 	-3.40652e-84
0.3815 	-6.14785e-87
0.3822 	-3.6069e-87
0.3829 	-1.9888e-87
0.3836 	-1.94836e-87
0.3843 	-1.21756e-84
0.385 	-2.76473e-84
0.3857 	-1.2175e-84
0.3864 	-1.66085e-87
0.3871 	-9.68205e-88
0.3878 	-4.30575e-88
0.3885 	-4.19275e-88
0.3892 	-2.43252e-85
0.3899 	-6.21001e-85
0.3906 	-3.51169e-85
0.3913 	-3.75378e-88
0.392 	-2.21567e-88
0.3927 	-8.0768e-89
0.3934 	-7.83386e-89
0.3941 	-4.00567e-86
0.3948 	-1.20017e-85
0.3955 	-8.57464e-86
0.3962 	-5.7838e-87
0.3969 	-4.44736e-89
0.3976 	-1.51089e-89
0.3983 	-1.30568e-89
0.399 	-5.38971e-87
0.3997 	-2.04454e-86
0.4004 	-1.82943e-86
0.4011 	-3.23827e-87
0.4018 	-7.98534e-90
0.4025 	-3.01121e-90
0.4032 	-1.97312e-90
0.4039 	-5.51107e-88
0.4046 	-3.11406e-87
0.4053 	-3.48017e-87
0.406 	-9.17163e-88
0.4067 	-1.29929e-90
0.4074 	-5.37147e-91
0.4081 	-2.72157e-91
0.4088 	-2.86361e-89
0.4095 	-4.25895e-88
0.4102 	-5.96147e-88
0.4109 	-1.98881e-88
0.4116 	-1.92656e-91
0.4123 	-8.63057e-92
0.413 	-3.45198e-92
0.4137 	-3.31885e-92
0.4144 	-5.24882e-89
0.4151 	-9.28384e-89
0.4158 	-3.63471e-89
0.4165 	-2.62051e-92
0.4172 	-1.25851e-92
0.4179 	-4.05248e-93
0.4186 	-3.89373e-93
0.4193 	-5.83445e-90
0.42 	-1.32553e-89
0.4207 	-5.83437e-90
0.4214 	-3.289e-93
0.4221 	-1.67807e-93
0.4228 	-4.43613e-94
0.4235 	-4.26078e-94
0.4242 	-5.84137e-91
0.4249 	-1.49215e-90
0.4256 	-8.43562e-91
0.4263 	-3.83906e-94
0.427 	-2.06262e-94
0.4277 	-4.52526e-95
0.4284 	-4.34618e-95
0.4291 	-5.17691e-92
0.4298 	-1.55223e-91
0.4305 	-1.10885e-91
0.4312 	-7.43048e-93
0.4319 	-2.34093e-95
0.4326 	-5.15747e-96
0.4333 	-4.13659e-96
0.434 	-3.92718e-93
0.4347 	-1.49122e-92
0.4354 	-1.33429e-92
0.4361 	-2.35782e-93
0.4368 	-2.45907e-96
0.4375 	-7.11001e-97
0.4382 	-3.68882e-97
0.4389 	-2.34262e-94
0.4396 	-1.32584e-93
0.4403 	-1.48178e-93
0.441 	-3.90198e-94
0.4417 	-2.403e-97
0.4424 	-8.3606e-98
0.4431 	-3.09916e-98
0.4438 	-7.3209e-96
0.4445 	-1.09402e-94
0.4452 	-1.53151e-94
0.4459 	-5.10698e-95
0.4466 	-2.19794e-98
0.4473 	-8.75788e-99
0.448 	-2.46309e-99
0.4487 	-2.36781e-99
0.4494 	-8.38338e-96
0.4501 	-1.48304e-95
0.4508 	-5.80458e-96
0.4515 	-1.89069e-99
0.4522 	-8.35858e-100
0.4529 	-1.8541e-100
0.4536 	-1.78392e-100
0.4543 	-5.93771e-97
0.455 	-1.34926e-96
0.4557 	-5.93771e-97
0.4564 	-1.5328e-100
0.4571 	-7.35673e-101
0.4578 	-1.31965e-101
0.4585 	-1.27095e-101
0.4592 	-3.84617e-98
0.4599 	-9.8272e-98
0.4606 	-5.55504e-98
0.4613 	-1.17004e-101
0.462 	-6.00408e-102
0.4627 	-8.87356e-103
0.4634 	-8.55549e-103
0.4641 	-2.2389e-99
0.4648 	-6.71505e-99
0.4655 	-4.7967e-99
0.4662 	-3.20556e-100
0.4669 	-4.56103e-103
0.4676 	-7.15562e-104
0.4683 	-5.44826e-104
0.469 	-1.13274e-100
0.4697 	-4.30295e-100
0.4704 	-3.85007e-100
0.4711 	-6.79859e-101
0.4718 	-3.23888e-104
0.4725 	-7.83777e-105
0.4732 	-3.29185e-105
0.4739 	-4.5688e-102
0.4746 	-2.58753e-101
0.4753 	-2.89191e-101
0.476 	-7.61266e-102
0.4767 	-2.16091e-105
0.4774 	-6.74102e-106
0.4781 	-1.89249e-106
0.4788 	-9.75624e-104
0.4795 	-1.46094e-102
0.4802 	-2.04525e-102
0.4809 	-6.81873e-103
0.4816 	-1.36053e-106
0.4823 	-5.03931e-107
0.483 	-1.03724e-107
0.4837 	-1.00412e-107
0.4844 	-7.73041e-104
0.4851 	-1.36761e-103
0.4858 	-5.35214e-104
0.4865 	-8.10955e-108
0.4872 	-3.40505e-108
0.4879 	-5.42632e-109
0.4886 	-5.2601e-109
0.4893 	-3.81583e-105
0.49 	-8.6717e-105
0.4907 	-3.81585e-105
0.4914 	-4.58666e-109
0.4921 	-2.12022e-109
0.4928 	-2.70877e-110
0.4935 	-2.62926e-110
0.4942 	-1.74062e-106
0.4949 	-4.44787e-106
0.4956 	-2.51413e-106
0.4963 	-2.46281e-110
0.497 	-1.2288e-110
0.4977 	-1.28948e-111
0.4984 	-1.25329e-111
0.4991 	-7.21084e-108
0.4998 	-2.16302e-107
0.5005 	-1.54505e-107
0.5012 	-1.03121e-108
0.5019 	-6.66737e-112
0.5026 	-7.78629e-113
0.5033 	-5.69493e-113
0.504 	-2.61973e-109
0.5047 	-9.9535e-109
0.5054 	-8.90583e-109
0.5061 	-1.57209e-109
0.5068 	-3.40009e-113
0.5075 	-7.20724e-114
0.5082 	-2.46666e-114
0.5089 	-7.63557e-111
0.5096 	-4.32575e-110
0.5103 	-4.83464e-110
0.511 	-1.27246e-110
0.5117 	-1.63429e-114
0.5124 	-4.72009e-115
0.5131 	-1.0188e-115
0.5138 	-1.18247e-112
0.5145 	-1.77238e-111
0.5152 	-2.4813e-111
0.5159 	-8.27168e-112
0.5166 	-7.42252e-116
0.5173 	-2.61359e-116
0.518 	-4.01108e-117
0.5187 	-3.91869e-117
0.5194 	-6.818e-113
0.5201 	-1.20623e-112
0.5208 	-4.72029e-113
0.5215 	-3.18916e-117
0.5222 	-1.29223e-117
0.5229 	-1.50661e-118
0.5236 	-1.47416e-118
0.5243 	-2.45017e-114
0.525 	-5.5684e-114
0.5257 	-2.45018e-114
0.5264 	-1.29896e-118
0.5271 	-5.84948e-119
0.5278 	-5.40046e-120
0.5285 	-5.29198e-120
0.5292 	-8.15572e-116
0.5299 	-2.08416e-115
0.5306 	-1.17803e-115
0.5313 	-5.02141e-120
0.532 	-2.4562e-120
0.5327 	-1.84746e-121
0.5334 	-1.81299e-121
0.5341 	-2.47476e-117
0.5348 	-7.42395e-117
0.5355 	-5.30288e-117
0.5362 	-3.53704e-118
0.5369 	-9.64161e-122
0.5376 	-8.44633e-123
0.5383 	-5.92758e-123
0.539 	-6.62025e-119
0.5397 	-2.51554e-118
0.5404 	-2.25076e-118
0.5411 	-3.97245e-119
0.5418 	-3.55568e-123
0.5425 	-6.76014e-124
0.5432 	-1.85e-124
0.5439 	-1.42979e-120
0.5446 	-8.10136e-120
0.5453 	-9.05445e-120
0.546 	-2.38289e-120
0.5467 	-1.2364e-124
0.5474 	-3.36373e-125
0.5481 	-5.51467e-126
0.5488 	-1.6523e-122
0.5495 	-2.47778e-121
0.5502 	-3.46887e-121
0.5509 	-1.15633e-121
0.5516 	-4.06576e-126
0.5523 	-1.37825e-126
0.553 	-1.56826e-127
0.5537 	-1.54742e-127
0.5544 	-7.16987e-123
0.5551 	-1.26851e-122
0.5558 	-4.96382e-123
0.5565 	-1.26517e-127
0.5572 	-4.99338e-128
0.5579 	-4.24718e-129
0.5586 	-4.19678e-129
0.5593 	-1.9531e-124
0.56 	-4.43882e-124
0.5607 	-1.95311e-124
0.5614 	-3.72392e-129
0.5621 	-1.64497e-129
0.5628 	-1.09231e-130
0.5635 	-1.08087e-130
0.5642 	-4.96681e-126
0.5649 	-1.26928e-125
0.5656 	-7.17426e-126
0.5663 	-1.03496e-130
0.567 	-4.98779e-131
0.5677 	-2.64522e-132
0.5684 	-2.62111e-132
0.5691 	-1.16083e-127
0.5698 	-3.48244e-127
0.5705 	-2.48747e-127
0.5712 	-1.6586e-128
0.5719 	-1.39265e-132
0.5726 	-8.99799e-134
0.5733 	-5.93615e-134
0.574 	-2.41208e-129
0.5747 	-9.16577e-129
0.5754 	-8.20097e-129
0.5761 	-1.44729e-129
0.5768 	-3.57166e-134
0.5775 	-6.14678e-135
0.5782 	-1.24667e-135
0.5789 	-4.08118e-131
0.5796 	-2.31263e-130
0.5803 	-2.5847e-130
0.581 	-6.80197e-131
0.5817 	-8.38333e-136
0.5824 	-2.1538e-136
0.5831 	-2.35211e-137
0.5838 	-3.72407e-133
0.5845 	-5.58592e-132
0.5852 	-7.82028e-132
0.5859 	-2.60678e-132
0.5866 	-1.74915e-137
0.5873 	-5.69934e-138
0.588 	-3.89206e-139
0.5887 	-3.87559e-139
0.5894 	-1.28935e-133
0.5901 	-2.28115e-133
0.5908 	-8.9263e-134
0.5915 	-3.17022e-139
0.5922 	-1.21462e-139
0.5929 	-5.55008e-141
0.5936 	-5.51153e-141
0.5943 	-2.8282e-135
0.595 	-6.42773e-135
0.5957 	-2.82821e-135
0.5964 	-4.89392e-141
0.5971 	-2.12315e-141
0.5978 	-8.61548e-143
0.5985 	-8.50711e-143
0.5992 	-5.84396e-137
0.5999 	-1.49346e-136
0.6006 	-8.4413e-137
0.6013 	-8.12525e-143
0.602 	-3.91835e-143
0.6027 	-2.26325e-144
0.6034 	-2.23311e-144
0.6041 	-1.1198e-138
0.6048 	-3.35939e-138
0.6055 	-2.39957e-138
0.6062 	-1.59976e-139
0.6069 	-1.18324e-144
0.6076 	-8.14099e-146
0.6083 	-5.85644e-146
0.609 	-1.92488e-140
0.6097 	-7.31454e-140
0.6104 	-6.54459e-140
0.6111 	-1.15494e-140
0.6118 	-3.50654e-146
0.6125 	-6.23167e-147
0.6132 	-1.5276e-147
0.6139 	-2.71865e-142
0.6146 	-1.54057e-141
0.6153 	-1.72181e-141
0.616 	-4.53111e-142
0.6167 	-1.01944e-147
0.6174 	-2.68931e-148
0.6181 	-3.9601e-149
0.6188 	-2.08933e-144
0.6195 	-3.13399e-143
0.6202 	-4.38759e-143
0.6209 	-1.46253e-143
0.6216 	-2.91359e-149
0.6223 	-9.71792e-150
0.623 	-1.01863e-150
0.6237 	-1.00353e-150
0.6244 	-6.14083e-145
0.6251 	-1.08646e-144
0.6258 	-4.25136e-145
0.6265 	-8.18995e-151
0.6272 	-3.20376e-151
0.6279 	-2.59633e-152
0.6286 	-2.55819e-152
0.6293 	-1.15327e-146
0.63 	-2.62106e-146
0.6307 	-1.15327e-146
0.6314 	-2.26483e-152
0.6321 	-9.96054e-153
0.6328 	-6.61229e-154
0.6335 	-6.51794e-154
0.6342 	-2.05792e-148
0.6349 	-5.25912e-148
0.6356 	-2.97255e-148
0.6363 	-6.22191e-154
0.637 	-3.00076e-154
0.6377 	-1.80835e-155
0.6384 	-1.78548e-155
0.6391 	-3.43315e-150
0.6398 	-1.02994e-149
0.6405 	-7.35674e-150
0.6412 	-4.90472e-151
0.6419 	-9.51907e-156
0.6426 	-7.47947e-157
0.6433 	-5.84785e-157
0.644 	-5.17688e-152
0.6447 	-1.9672e-151
0.6454 	-1.76013e-151
0.6461 	-3.10617e-152
0.6468 	-3.53218e-157
0.6475 	-6.52598e-158
0.6482 	-1.88899e-158
0.6489 	-6.45938e-154
0.6496 	-3.66024e-153
0.6503 	-4.09086e-153
0.651 	-1.07656e-153
0.6517 	-1.27438e-158
0.6524 	-3.41216e-159
0.6531 	-5.79227e-160
0.6538 	-4.41489e-156
0.6545 	-6.6216e-155
0.6552 	-9.27023e-155
0.6559 	-3.09012e-155
0.6566 	-4.31528e-160
0.6573 	-1.4465e-160
0.658 	-1.66412e-161
0.6587 	-1.6554e-161
0.6594 	-1.1598e-156
0.6601 	-2.05194e-156
0.6608 	-8.02944e-157
0.6615 	-1.35659e-161
0.6622 	-5.30672e-162
0.6629 	-4.43025e-163
0.6636 	-4.40751e-163
0.6643 	-1.95566e-158
0.665 	-4.44462e-158
0.6657 	-1.95566e-158
0.6664 	-3.9228e-163
0.6671 	-1.72106e-163
0.6678 	-1.10291e-164
0.6685 	-1.09723e-164
0.6692 	-3.14466e-160
0.6699 	-8.03617e-160
0.6706 	-4.54223e-160
0.6713 	-1.0541e-164
0.672 	-5.05488e-165
0.6727 	-2.58241e-166
0.6734 	-2.56888e-166
0.6741 	-4.74064e-162
0.6748 	-1.42214e-161
0.6755 	-1.01582e-161
0.6762 	-6.77457e-163
0.6769 	-1.36428e-166
0.6776 	-7.89525e-168
0.6783 	-5.67053e-168
0.679 	-6.47187e-164
0.6797 	-2.45915e-163
0.6804 	-2.2003e-163
0.6811 	-3.88335e-164
0.6818 	-3.41124e-168
0.6825 	-5.7244e-169
0.6832 	-1.18024e-169
0.6839 	-7.31606e-166
0.6846 	-4.14522e-165
0.6853 	-4.63288e-165
0.686 	-1.21927e-165
0.6867 	-7.93228e-170
0.6874 	-2.02091e-170
0.6881 	-2.30606e-171
0.6888 	-4.52735e-168
0.6895 	-6.78783e-167
0.6902 	-9.50287e-167
0.6909 	-3.16778e-167
0.6916 	-1.71239e-171
0.6923 	-5.56866e-172
0.693 	-4.18914e-173
0.6937 	-4.16364e-173
0.6944 	-1.06934e-168
0.6951 	-1.89187e-168
0.6958 	-7.40322e-169
0.6965 	-3.40639e-173
0.6972 	-1.3093e-173
0.6979 	-7.52211e-175
0.6986 	-7.47626e-175
0.6993 	-7.46246e-175
0.7 	-7.45741e-175
