0 	1
0.0007 	1
0.0014 	1
0.0021 	1
0.0028 	1
0.0035 	1
0.0042 	1
0.0049 	1
0.0056 	1
0.0063 	1
0.007 	1
0.0077 	1
0.0084 	1
0.0091 	1
0.0098 	1
0.0105 	1
0.0112 	1
0.0119 	1
0.0126 	1
0.0133 	1
0.014 	1
0.0147 	1
0.0154 	1
0.0161 	1
0.0168 	1
0.0175 	1
0.0182 	1
0.0189 	1
0.0196 	1
0.0203 	1
0.021 	1
0.0217 	1
0.0224 	1
0.0231 	1
0.0238 	1
0.0245 	1
0.0252 	1
0.0259 	1
0.0266 	1
0.0273 	1
0.028 	1
0.0287 	1
0.0294 	1
0.0301 	1
0.0308 	1
0.0315 	1
0.0322 	1
0.0329 	1
0.0336 	1
0.0343 	1
0.035 	1
0.0357 	1
0.0364 	1
0.0371 	1
0.0378 	1
0.0385 	1
0.0392 	1
0.0399 	1
0.0406 	1
0.0413 	1
0.042 	1
0.0427 	1
0.0434 	1
0.0441 	1
0.0448 	1
0.0455 	1
0.0462 	1
0.0469 	1
0.0476 	1
0.0483 	1
0.049 	1
0.0497 	1
0.0504 	1
0.0511 	1
0.0518 	1
0.0525 	1
0.0532 	1
0.0539 	1
0.0546 	1
0.0553 	1
0.056 	1
0.0567 	1
0.0574 	1
0.0581 	1
0.0588 	1
0.0595 	1
0.0602 	1
0.0609 	1
0.0616 	1
0.0623 	1
0.063 	1
0.0637 	1
0.0644 	1
0.0651 	1
0.0658 	1
0.0665 	1
0.0672 	1
0.0679 	1
0.0686 	1
0.0693 	1
0.07 	1
0.0707 	1
0.0714 	1
0.0721 	1
0.0728 	1
0.0735 	1
0.0742 	1
0.0749 	1
0.0756 	1
0.0763 	1
0.077 	1
0.0777 	1
0.0784 	1
0.0791 	1
0.0798 	1
0.0805 	1
0.0812 	1
0.0819 	1
0.0826 	1
0.0833 	1
0.084 	1
0.0847 	1
0.0854 	1
0.0861 	1
0.0868 	1
0.0875 	1
0.0882 	1
0.0889 	1
0.0896 	1
0.0903 	1
0.091 	1
0.0917 	1
0.0924 	1
0.0931 	1
0.0938 	1
0.0945 	1
0.0952 	1
0.0959 	1
0.0966 	1
0.0973 	1
0.098 	1
0.0987 	1
0.0994 	1
0.1001 	1
0.1008 	1
0.1015 	1
0.1022 	1
0.1029 	1
0.1036 	1
0.1043 	1
0.105 	1
0.1057 	1
0.1064 	1
0.1071 	1
0.1078 	1
0.1085 	1
0.1092 	1
0.1099 	1
0.1106 	1
0.1113 	1
0.112 	1
0.1127 	1
0.1134 	1
0.1141 	1
0.1148 	1
0.1155 	1
0.1162 	1
0.1169 	1
0.1176 	1
0.1183 	1
0.119 	1
0.1197 	1
0.1204 	1
0.1211 	1
0.1218 	1
0.1225 	1
0.1232 	1
0.1239 	1
0.1246 	1
0.1253 	1
0.126 	1
0.1267 	1
0.1274 	1
0.1281 	1
0.1288 	1
0.1295 	1
0.1302 	1
0.1309 	1
0.1316 	1
0.1323 	1
0.133 	1
0.1337 	1
0.1344 	1
0.1351 	1
0.1358 	1
0.1365 	1
0.1372 	1
0.1379 	1
0.1386 	1
0.1393 	1
0.14 	1
0.1407 	1
0.1414 	1
0.1421 	1
0.1428 	1
0.1435 	1
0.1442 	1
0.1449 	1
0.1456 	1
0.1463 	1
0.147 	1
0.1477 	1
0.1484 	1
0.1491 	1
0.1498 	1
0.1505 	1
0.1512 	1
0.1519 	1
0.1526 	1
0.1533 	1
0.154 	1
0.1547 	1
0.1554 	1
0.1561 	1
0.1568 	1
0.1575 	1
0.1582 	1
0.1589 	1
0.1596 	1
0.1603 	1
0.161 	1
0.1617 	1
0.1624 	1
0.1631 	1
0.1638 	1
0.1645 	1
0.1652 	1
0.1659 	1
0.1666 	1
0.1673 	1
0.168 	1
0.1687 	1
0.1694 	1
0.1701 	1
0.1708 	1
0.1715 	1
0.1722 	1
0.1729 	1
0.1736 	1
0.1743 	1
0.175 	1
0.1757 	1
0.1764 	1
0.1771 	1
0.1778 	1
0.1785 	1
0.1792 	1
0.1799 	1
0.1806 	1
0.1813 	1
0.182 	1
0.1827 	1
0.1834 	1
0.1841 	1
0.1848 	1
0.1855 	1
0.1862 	1
0.1869 	1
0.1876 	1
0.1883 	1
0.189 	1
0.1897 	1
0.1904 	1
0.1911 	1
0.1918 	1
0.1925 	1
0.1932 	1
0.1939 	1
0.1946 	1
0.1953 	1
0.196 	1
0.1967 	1
0.1974 	1
0.1981 	1
0.1988 	1
0.1995 	1
0.2002 	1
0.2009 	1
0.2016 	1
0.2023 	1
0.203 	1
0.2037 	1
0.2044 	1
0.2051 	1
0.2058 	1
0.2065 	1
0.2072 	1
0.2079 	1
0.2086 	1
0.2093 	1
0.21 	1
0.2107 	1
0.2114 	1
0.2121 	1
0.2128 	1
0.2135 	1
0.2142 	1
0.2149 	1
0.2156 	1
0.2163 	0.999999
0.217 	0.999998
0.2177 	0.999997
0.2184 	0.999997
0.2191 	0.999996
0.2198 	0.999995
0.2205 	0.999991
0.2212 	0.999967
0.2219 	0.999943
0.2226 	0.999918
0.2233 	0.999894
0.224 	0.999869
0.2247 	0.999844
0.2254 	0.999834
0.2261 	0.999263
0.2268 	0.998687
0.2275 	0.998111
0.2282 	0.997536
0.2289 	0.99696
0.2296 	0.996384
0.2303 	0.996108
0.231 	0.986016
0.2317 	0.974083
0.2324 	0.96215
0.2331 	0.950217
0.2338 	0.938285
0.2345 	0.926352
0.2352 	0.916721
0.2359 	0.883674
0.2366 	0.83661
0.2373 	0.789547
0.238 	0.742484
0.2387 	0.695421
0.2394 	0.648358
0.2401 	0.586828
0.2408 	0.530137
0.2415 	0.474688
0.2422 	0.419237
0.2429 	0.363787
0.2436 	0.308337
0.2443 	0.252886
0.245 	0.199311
0.2457 	0.150645
0.2464 	0.128371
0.2471 	0.106096
0.2478 	0.0838212
0.2485 	0.0615461
0.2492 	0.039271
0.2499 	0.0259511
0.2506 	0.015639
0.2513 	0.0130493
0.252 	0.0104593
0.2527 	0.0078693
0.2534 	0.0052793
0.2541 	0.0026893
0.2548 	0.00100482
0.2555 	0.000490654
0.2562 	0.000407851
0.2569 	0.000325042
0.2576 	0.000242233
0.2583 	0.000159425
0.259 	7.66158e-05
0.2597 	9.07742e-06
0.2604 	3.95547e-06
0.2611 	3.10758e-06
0.2618 	2.48688e-06
0.2625 	1.86618e-06
0.2632 	1.24547e-06
0.2639 	6.24768e-07
0.2646 	1.21057e-08
0.2653 	2.19832e-08
0.266 	5.63375e-09
0.2667 	4.55008e-09
0.2674 	3.46645e-09
0.2681 	2.38281e-09
0.2688 	1.29917e-09
0.2695 	2.15531e-10
0.2702 	9.26252e-11
0.2709 	5.90031e-11
0.2716 	5.19148e-11
0.2723 	4.48272e-11
0.273 	3.77396e-11
0.2737 	3.0652e-11
0.2744 	2.35645e-11
0.2751 	1.9946e-11
0.2758 	1.84749e-11
0.2765 	1.68446e-11
0.2772 	1.52151e-11
0.2779 	1.35857e-11
0.2786 	1.19562e-11
0.2793 	1.03268e-11
0.28 	8.88615e-12
0.2807 	7.8531e-12
0.2814 	7.1325e-12
0.2821 	6.41259e-12
0.2828 	5.69268e-12
0.2835 	4.97277e-12
0.2842 	4.25286e-12
0.2849 	3.70164e-12
0.2856 	3.09695e-12
0.2863 	2.8081e-12
0.287 	2.51962e-12
0.2877 	2.23113e-12
0.2884 	1.94265e-12
0.2891 	1.65417e-12
0.2898 	1.42755e-12
0.2905 	1.19988e-12
0.2912 	1.0931e-12
0.2919 	9.86444e-13
0.2926 	8.79795e-13
0.2933 	7.73147e-13
0.294 	6.66498e-13
0.2947 	5.69148e-13
0.2954 	4.88351e-13
0.2961 	4.44677e-13
0.2968 	4.01896e-13
0.2975 	3.59123e-13
0.2982 	3.16351e-13
0.2989 	2.73578e-13
0.2996 	2.31043e-13
0.3003 	1.9831e-13
0.301 	1.76276e-13
0.3017 	1.57939e-13
0.3024 	1.39605e-13
0.3031 	1.21271e-13
0.3038 	1.02937e-13
0.3045 	8.46037e-14
0.3052 	7.05057e-14
0.3059 	5.97611e-14
0.3066 	5.26624e-14
0.3073 	4.5564e-14
0.308 	3.84657e-14
0.3087 	3.13673e-14
0.3094 	2.42689e-14
0.3101 	1.95806e-14
0.3108 	1.51078e-14
0.3115 	1.30484e-14
0.3122 	1.09885e-14
0.3129 	8.92852e-15
0.3136 	6.86857e-15
0.3143 	4.80861e-15
0.315 	3.77202e-15
0.3157 	2.48489e-15
0.3164 	2.10801e-15
0.3171 	1.7308e-15
0.3178 	1.35359e-15
0.3185 	9.76377e-16
0.3192 	5.99165e-16
0.3199 	4.00939e-16
0.3206 	2.34444e-16
0.3213 	1.96991e-16
0.322 	1.59468e-16
0.3227 	1.21944e-16
0.3234 	8.44213e-17
0.3241 	4.68982e-17
0.3248 	2.2299e-17
0.3255 	1.26098e-17
0.3262 	1.06107e-17
0.3269 	8.60632e-18
0.3276 	6.6015e-18
0.3283 	4.59668e-18
0.329 	2.59186e-18
0.3297 	9.25797e-19
0.3304 	5.9655e-19
0.3311 	4.98385e-19
0.3318 	4.09562e-19
0.3325 	3.20672e-19
0.3332 	2.31782e-19
0.3339 	1.42892e-19
0.3346 	5.54066e-20
0.3353 	4.05068e-20
0.336 	3.16459e-20
0.3367 	2.61717e-20
0.3374 	2.06892e-20
0.3381 	1.52067e-20
0.3388 	9.72422e-21
0.3395 	4.24171e-21
0.3402 	2.7724e-21
0.3409 	1.9761e-21
0.3416 	1.62883e-21
0.3423 	1.28064e-21
0.343 	9.32443e-22
0.3437 	5.84247e-22
0.3444 	2.36051e-22
0.3451 	1.34588e-22
0.3458 	7.69247e-23
0.3465 	6.32019e-23
0.3472 	4.94188e-23
0.3479 	3.56356e-23
0.3486 	2.18525e-23
0.3493 	8.06943e-24
0.35 	3.5459e-24
0.3507 	1.29341e-24
0.3514 	1.06435e-24
0.3521 	8.33731e-25
0.3528 	6.03113e-25
0.3535 	3.72495e-25
0.3542 	1.41877e-25
0.3549 	2.87181e-26
0.3556 	7.84291e-27
0.3563 	6.48455e-27
0.357 	5.11211e-27
0.3577 	3.73966e-27
0.3584 	2.36722e-27
0.3591 	9.94776e-28
0.3598 	7.46065e-29
0.3605 	2.27192e-29
0.3612 	1.8891e-29
0.3619 	1.50087e-29
0.3626 	1.11223e-29
0.3633 	7.23582e-30
0.364 	3.34938e-30
0.3647 	1.17945e-31
0.3654 	5.75286e-32
0.3661 	4.46991e-32
0.3668 	3.57849e-32
0.3675 	2.68315e-32
0.3682 	1.78781e-32
0.3689 	8.92467e-33
0.3696 	1.56607e-34
0.3703 	1.52779e-34
0.371 	7.26178e-35
0.3717 	5.85652e-35
0.3724 	4.43801e-35
0.3731 	3.0195e-35
0.3738 	1.60099e-35
0.3745 	1.82486e-36
0.3752 	2.6784e-37
0.3759 	4.371e-38
0.3766 	3.55169e-38
0.3773 	2.7192e-38
0.378 	1.88671e-38
0.3787 	1.05422e-38
0.3794 	2.21726e-39
0.3801 	2.13602e-40
0.3808 	6.43557e-42
0.3815 	5.26688e-42
0.3822 	4.07213e-42
0.3829 	2.87738e-42
0.3836 	1.68262e-42
0.3843 	4.87872e-43
0.385 	4.0587e-44
0.3857 	6.95862e-46
0.3864 	5.73126e-46
0.3871 	4.47185e-46
0.3878 	3.21243e-46
0.3885 	1.95302e-46
0.3892 	6.9361e-47
0.3899 	3.12159e-48
0.3906 	7.42167e-50
0.3913 	6.14978e-50
0.392 	4.83941e-50
0.3927 	3.52905e-50
0.3934 	2.21868e-50
0.3941 	9.08306e-51
0.3948 	2.18303e-52
0.3955 	8.03612e-54
0.3962 	6.6942e-54
0.3969 	5.31228e-54
0.3976 	3.92729e-54
0.3983 	2.5423e-54
0.399 	1.1573e-54
0.3997 	1.2801e-56
0.4004 	2.45423e-57
0.4011 	7.44472e-58
0.4018 	5.95708e-58
0.4025 	4.45958e-58
0.4032 	2.96209e-58
0.4039 	1.46459e-58
0.4046 	3.41648e-61
0.4053 	1.31183e-60
0.406 	8.40643e-62
0.4067 	6.77911e-62
0.4074 	5.13387e-62
0.4081 	3.48863e-62
0.4088 	1.84339e-62
0.4095 	1.98155e-63
0.4102 	2.58838e-64
0.4109 	9.51409e-66
0.4116 	7.72865e-66
0.4123 	5.91562e-66
0.413 	4.10259e-66
0.4137 	2.28956e-66
0.4144 	4.76534e-67
0.4151 	4.17838e-68
0.4158 	1.06623e-69
0.4165 	8.72132e-70
0.4172 	6.74155e-70
0.4179 	4.76179e-70
0.4186 	2.78202e-70
0.4193 	8.02253e-71
0.42 	6.14044e-72
0.4207 	1.17294e-73
0.4214 	9.6568e-74
0.4221 	7.53331e-74
0.4228 	5.40982e-74
0.4235 	3.28633e-74
0.4242 	1.16284e-74
0.4249 	5.27102e-76
0.4256 	1.25835e-77
0.4263 	1.04142e-77
0.427 	8.18936e-78
0.4277 	5.96448e-78
0.4284 	3.7396e-78
0.4291 	1.51471e-78
0.4298 	1.46955e-80
0.4305 	-2.44762e-80
0.4312 	-7.12402e-80
0.4319 	-7.48469e-80
0.4326 	-7.5134e-80
0.4333 	-7.5421e-80
0.434 	-7.57081e-80
0.4347 	-8.66958e-80
0.4354 	-7.78731e-80
0.4361 	-1.39185e-79
0.4368 	-1.53173e-79
0.4375 	-1.53351e-79
0.4382 	-1.53529e-79
0.4389 	-1.53707e-79
0.4396 	-1.57258e-79
0.4403 	-1.7592e-79
0.441 	-1.98704e-79
0.4417 	-2.17914e-79
0.4424 	-2.18102e-79
0.4431 	-2.18289e-79
0.4438 	-2.18477e-79
0.4445 	-2.18664e-79
0.4452 	-2.7579e-79
0.4459 	-2.32209e-79
0.4466 	-2.41831e-79
0.4473 	-2.41944e-79
0.448 	-2.42056e-79
0.4487 	-2.42169e-79
0.4494 	-2.42281e-79
0.4501 	-3.34199e-79
0.4508 	-2.32651e-79
0.4515 	-2.2106e-79
0.4522 	-2.21054e-79
0.4529 	-2.21048e-79
0.4536 	-2.21043e-79
0.4543 	-2.21037e-79
0.455 	-3.31044e-79
0.4557 	-2.04443e-79
0.4564 	-1.72099e-79
0.4571 	-1.71995e-79
0.4578 	-1.71892e-79
0.4585 	-1.71788e-79
0.4592 	-1.71685e-79
0.4599 	-2.36704e-79
0.4606 	-1.595e-79
0.4613 	-1.16728e-79
0.462 	-1.16581e-79
0.4627 	-1.16435e-79
0.4634 	-1.16288e-79
0.4641 	-1.16142e-79
0.4648 	-1.46316e-79
0.4655 	-1.11338e-79
0.4662 	-7.28567e-80
0.4669 	-6.99794e-80
0.4676 	-6.98407e-80
0.4683 	-6.97021e-80
0.469 	-6.95635e-80
0.4697 	-7.93599e-80
0.4704 	-7.08767e-80
0.4711 	-4.34432e-80
0.4718 	-3.76791e-80
0.4725 	-3.75747e-80
0.4732 	-3.74704e-80
0.4739 	-3.7366e-80
0.4746 	-3.81748e-80
0.4753 	-4.24771e-80
0.476 	-2.40612e-80
0.4767 	-1.83979e-80
0.4774 	-1.83315e-80
0.4781 	-1.8265e-80
0.4788 	-1.81986e-80
0.4795 	-1.81322e-80
0.4802 	-2.2839e-80
0.4809 	-1.23727e-80
0.4816 	-8.22868e-81
0.4823 	-8.19173e-81
0.483 	-8.15478e-81
0.4837 	-8.11783e-81
0.4844 	-8.08088e-81
0.4851 	-1.11505e-80
0.4858 	-5.91049e-81
0.4865 	-3.40145e-81
0.4872 	-3.3831e-81
0.4879 	-3.36476e-81
0.4886 	-3.34641e-81
0.4893 	-3.32806e-81
0.49 	-4.99484e-81
0.4907 	-2.62694e-81
0.4914 	-1.3054e-81
0.4921 	-1.29712e-81
0.4928 	-1.28884e-81
0.4935 	-1.28056e-81
0.4942 	-1.27228e-81
0.4949 	-1.75745e-81
0.4956 	-1.0869e-81
0.4963 	-4.66667e-82
0.497 	-4.6324e-82
0.4977 	-4.59813e-82
0.4984 	-4.56386e-82
0.4991 	-4.52959e-82
0.4998 	-5.71226e-82
0.5005 	-4.18986e-82
0.5012 	-1.73396e-82
0.5019 	-1.54641e-82
0.5026 	-1.53333e-82
0.5033 	-1.52026e-82
0.504 	-1.50719e-82
0.5047 	-1.71814e-82
0.5054 	-1.52219e-82
0.5061 	-6.67988e-83
0.5068 	-4.84432e-83
0.5075 	-4.79811e-83
0.5082 	-4.75189e-83
0.5089 	-4.70568e-83
0.5096 	-4.78942e-83
0.5103 	-5.31999e-83
0.511 	-2.39616e-83
0.5117 	-1.42845e-83
0.5124 	-1.41322e-83
0.5131 	-1.398e-83
0.5138 	-1.38278e-83
0.5145 	-1.36755e-83
0.5152 	-1.73133e-83
0.5159 	-8.01833e-84
0.5166 	-3.97812e-84
0.5173 	-3.93121e-84
0.518 	-3.8843e-84
0.5187 	-3.83739e-84
0.5194 	-3.79048e-84
0.5201 	-5.27508e-84
0.5208 	-2.51071e-84
0.5215 	-1.04981e-84
0.5222 	-1.03623e-84
0.5229 	-1.02265e-84
0.5236 	-1.00907e-84
0.5243 	-9.95494e-85
0.525 	-1.51204e-84
0.5257 	-7.38153e-85
0.5264 	-2.63098e-85
0.5271 	-2.59389e-85
0.5278 	-2.55681e-85
0.5285 	-2.51972e-85
0.5292 	-2.48264e-85
0.5299 	-3.46406e-85
0.5306 	-2.04338e-85
0.5313 	-6.27238e-86
0.532 	-6.17657e-86
0.5327 	-6.08076e-86
0.5334 	-5.98495e-86
0.5341 	-5.88914e-86
0.5348 	-7.47896e-86
0.5355 	-5.33908e-86
0.5362 	-1.6845e-86
0.5369 	-1.40168e-86
0.5376 	-1.37822e-86
0.5383 	-1.35475e-86
0.539 	-1.33129e-86
0.5397 	-1.52113e-86
0.5404 	-1.33328e-86
0.5411 	-4.86687e-87
0.5418 	-3.03808e-87
0.5425 	-2.9835e-87
0.5432 	-2.92893e-87
0.5439 	-2.87435e-87
0.5446 	-2.91166e-87
0.5453 	-3.24495e-87
0.546 	-1.28528e-87
0.5467 	-6.30275e-88
0.5474 	-6.18186e-88
0.5481 	-6.06098e-88
0.5488 	-5.9401e-88
0.5495 	-5.81922e-88
0.5502 	-7.47585e-88
0.5509 	-3.14977e-88
0.5516 	-1.25379e-88
0.5523 	-1.22823e-88
0.553 	-1.20267e-88
0.5537 	-1.17711e-88
0.5544 	-1.15155e-88
0.5551 	-1.63688e-88
0.5558 	-7.23272e-89
0.5565 	-2.39509e-89
0.5572 	-2.34339e-89
0.5579 	-2.2917e-89
0.5586 	-2.24e-89
0.5593 	-2.18831e-89
0.56 	-3.41685e-89
0.5607 	-1.56657e-89
0.5614 	-4.39914e-90
0.5621 	-4.29896e-90
0.5628 	-4.19878e-90
0.5635 	-4.0986e-90
0.5642 	-3.99842e-90
0.5649 	-5.71316e-90
0.5656 	-3.2161e-90
0.5663 	-7.77792e-91
0.567 	-7.59165e-91
0.5677 	-7.40539e-91
0.5684 	-7.21912e-91
0.5691 	-7.03285e-91
0.5698 	-9.09247e-91
0.5705 	-6.28153e-91
0.5712 	-1.65344e-91
0.5719 	-1.29197e-91
0.5726 	-1.2587e-91
0.5733 	-1.22543e-91
0.574 	-1.19216e-91
0.5747 	-1.37463e-91
0.5754 	-1.18637e-91
0.5761 	-3.85022e-92
0.5768 	-2.1215e-92
0.5775 	-2.06433e-92
0.5782 	-2.00717e-92
0.5789 	-1.95e-92
0.5796 	-1.96769e-92
0.5803 	-2.21647e-92
0.581 	-8.02011e-93
0.5817 	-3.3659e-93
0.5824 	-3.27131e-93
0.5831 	-3.17672e-93
0.5838 	-3.08213e-93
0.5845 	-2.98754e-93
0.5852 	-3.95277e-93
0.5859 	-1.54048e-93
0.5866 	-5.16741e-94
0.5873 	-5.01645e-94
0.588 	-4.86548e-94
0.5887 	-4.71452e-94
0.5894 	-4.56356e-94
0.5901 	-6.75651e-94
0.5908 	-2.77344e-94
0.5915 	-7.68768e-95
0.5922 	-7.45492e-95
0.5929 	-7.22216e-95
0.5936 	-6.9894e-95
0.5943 	-6.75664e-95
0.595 	-1.11069e-94
0.5957 	-4.72803e-95
0.5964 	-1.1098e-95
0.5971 	-1.07508e-95
0.5978 	-1.04035e-95
0.5985 	-1.00563e-95
0.5992 	-9.70903e-96
0.5999 	-1.45106e-95
0.6006 	-7.6845e-96
0.6013 	-1.55635e-96
0.602 	-1.50615e-96
0.6027 	-1.45595e-96
0.6034 	-1.40576e-96
0.6041 	-1.35556e-96
0.6048 	-1.81546e-96
0.6055 	-1.19656e-96
0.6062 	-2.77361e-97
0.6069 	-2.05169e-97
0.6076 	-1.9813e-97
0.6083 	-1.91091e-97
0.609 	-1.84052e-97
0.6097 	-2.1672e-97
0.6104 	-1.82806e-97
0.6111 	-5.46258e-98
0.6118 	-2.71931e-98
0.6125 	-2.62346e-98
0.6132 	-2.52761e-98
0.6139 	-2.43177e-98
0.6146 	-2.45295e-98
0.6153 	-2.82129e-98
0.616 	-9.44794e-99
0.6167 	-3.50837e-99
0.6174 	-3.38156e-99
0.6181 	-3.25475e-99
0.6188 	-3.12794e-99
0.6195 	-3.00112e-99
0.6202 	-4.17423e-99
0.6209 	-1.50027e-99
0.6216 	-4.40741e-100
0.6223 	-4.2443e-100
0.623 	-4.08118e-100
0.6237 	-3.91807e-100
0.6244 	-3.75495e-100
0.6251 	-5.94285e-100
0.6258 	-2.23331e-100
0.6265 	-5.39223e-101
0.6272 	-5.18819e-101
0.6279 	-4.98415e-101
0.6286 	-4.78011e-101
0.6293 	-4.57607e-101
0.63 	-8.16284e-101
0.6307 	-3.15255e-101
0.6314 	-6.4255e-102
0.6321 	-6.17723e-102
0.6328 	-5.92896e-102
0.6335 	-5.6807e-102
0.6342 	-5.43243e-102
0.6349 	-8.72441e-102
0.6356 	-4.2495e-102
0.6363 	-7.45827e-103
0.637 	-7.16439e-103
0.6377 	-6.87051e-103
0.6384 	-6.57664e-103
0.6391 	-6.28276e-103
0.6398 	-8.91434e-103
0.6405 	-5.49508e-103
0.6412 	-1.15121e-103
0.6419 	-8.09515e-104
0.6426 	-7.75668e-104
0.6433 	-7.41821e-104
0.644 	-7.07974e-104
0.6447 	-8.64931e-104
0.6454 	-7.06301e-104
0.6461 	-1.96537e-104
0.6468 	-8.91269e-105
0.6475 	-8.53332e-105
0.6482 	-8.15396e-105
0.6489 	-7.7746e-105
0.6496 	-7.88123e-105
0.6503 	-9.36956e-105
0.651 	-2.88514e-105
0.6517 	-9.56398e-106
0.6524 	-9.1501e-106
0.6531 	-8.73622e-106
0.6538 	-8.32235e-106
0.6545 	-7.90847e-106
0.6552 	-1.18541e-105
0.6559 	-3.85836e-106
0.6566 	-1.00059e-106
0.6573 	-9.56621e-107
0.658 	-9.12656e-107
0.6587 	-8.68691e-107
0.6594 	-8.24726e-107
0.6601 	-1.4388e-106
0.6608 	-4.82176e-107
0.6615 	-1.02099e-107
0.6622 	-9.755e-108
0.6629 	-9.30009e-108
0.6636 	-8.84519e-108
0.6643 	-8.39029e-108
0.665 	-1.68235e-107
0.6657 	-5.70828e-108
0.6664 	-1.01655e-108
0.6671 	-9.70682e-109
0.6678 	-9.24814e-109
0.6685 	-8.78947e-109
0.6692 	-8.3308e-109
0.6699 	-1.48557e-108
0.6706 	-6.4552e-109
0.6713 	-9.88048e-110
0.672 	-9.42958e-110
0.6727 	-8.97868e-110
0.6734 	-8.52778e-110
0.6741 	-8.07689e-110
0.6748 	-1.24947e-109
0.6755 	-7.01165e-110
0.6762 	-1.33998e-110
0.6769 	-8.94719e-111
0.6776 	-8.51481e-111
0.6783 	-8.08242e-111
0.679 	-7.65004e-111
0.6797 	-9.90822e-111
0.6804 	-7.72957e-111
0.6811 	-2.00544e-111
0.6818 	-8.29617e-112
0.6825 	-7.89149e-112
0.6832 	-7.48681e-112
0.6839 	-7.08213e-112
0.6846 	-7.27074e-112
0.6853 	-9.07828e-112
0.686 	-2.52965e-112
0.6867 	-7.52115e-113
0.6874 	-7.15128e-113
0.6881 	-6.78141e-113
0.6888 	-6.41154e-113
0.6895 	-6.04167e-113
0.6902 	-1.00777e-112
0.6909 	-2.89131e-113
0.6916 	-6.67002e-114
0.6923 	-6.3397e-114
0.693 	-6.00938e-114
0.6937 	-5.67906e-114
0.6944 	-5.34873e-114
0.6951 	-1.06866e-113
0.6958 	-3.24886e-114
0.6965 	-9.40856e-115
0.6972 	-9.14286e-115
0.6979 	-8.87716e-115
0.6986 	-8.61147e-115
0.6993 	-8.34577e-115
0.7 	-2.00607e-114
