0 	1
0.0007 	1
0.0014 	1
0.0021 	1
0.0028 	1
0.0035 	1
0.0042 	1
0.0049 	1
0.0056 	1
0.0063 	1
0.007 	1
0.0077 	1
0.0084 	1
0.0091 	1
0.0098 	1
0.0105 	1
0.0112 	1
0.0119 	1
0.0126 	1
0.0133 	1
0.014 	1
0.0147 	1
0.0154 	1
0.0161 	1
0.0168 	1
0.0175 	1
0.0182 	1
0.0189 	1
0.0196 	1
0.0203 	1
0.021 	1
0.0217 	1
0.0224 	1
0.0231 	1
0.0238 	1
0.0245 	1
0.0252 	1
0.0259 	1
0.0266 	1
0.0273 	1
0.028 	1
0.0287 	1
0.0294 	1
0.0301 	1
0.0308 	1
0.0315 	1
0.0322 	1
0.0329 	1
0.0336 	1
0.0343 	1
0.035 	1
0.0357 	1
0.0364 	1
0.0371 	1
0.0378 	1
0.0385 	1
0.0392 	1
0.0399 	1
0.0406 	1
0.0413 	1
0.042 	1
0.0427 	1
0.0434 	1
0.0441 	1
0.0448 	1
0.0455 	1
0.0462 	1
0.0469 	1
0.0476 	1
0.0483 	1
0.049 	1
0.0497 	1
0.0504 	1
0.0511 	1
0.0518 	1
0.0525 	1
0.0532 	1
0.0539 	1
0.0546 	1
0.0553 	1
0.056 	1
0.0567 	1
0.0574 	1
0.0581 	1
0.0588 	1
0.0595 	1
0.0602 	1
0.0609 	1
0.0616 	1
0.0623 	1
0.063 	1
0.0637 	1
0.0644 	1
0.0651 	1
0.0658 	1
0.0665 	1
0.0672 	1
0.0679 	1
0.0686 	1
0.0693 	1
0.07 	1
0.0707 	1
0.0714 	1
0.0721 	1
0.0728 	1
0.0735 	1
0.0742 	1
0.0749 	1
0.0756 	1
0.0763 	1
0.077 	1
0.0777 	1
0.0784 	1
0.0791 	1
0.0798 	1
0.0805 	1
0.0812 	1
0.0819 	1
0.0826 	1
0.0833 	1
0.084 	1
0.0847 	1
0.0854 	1
0.0861 	1
0.0868 	1
0.0875 	1
0.0882 	1
0.0889 	1
0.0896 	1
0.0903 	1
0.091 	1
0.0917 	1
0.0924 	1
0.0931 	1
0.0938 	1
0.0945 	1
0.0952 	1
0.0959 	1
0.0966 	1
0.0973 	1
0.098 	1
0.0987 	1
0.0994 	1
0.1001 	1
0.1008 	1
0.1015 	1
0.1022 	1
0.1029 	1
0.1036 	1
0.1043 	1
0.105 	1
0.1057 	1
0.1064 	1
0.1071 	1
0.1078 	1
0.1085 	1
0.1092 	1
0.1099 	1
0.1106 	1
0.1113 	1
0.112 	1
0.1127 	1
0.1134 	1
0.1141 	1
0.1148 	1
0.1155 	1
0.1162 	1
0.1169 	1
0.1176 	1
0.1183 	1
0.119 	1
0.1197 	1
0.1204 	1
0.1211 	1
0.1218 	1
0.1225 	1
0.1232 	1
0.1239 	1
0.1246 	1
0.1253 	1
0.126 	1
0.1267 	1
0.1274 	1
0.1281 	1
0.1288 	1
0.1295 	1
0.1302 	1
0.1309 	1
0.1316 	1
0.1323 	1
0.133 	1
0.1337 	1
0.1344 	1
0.1351 	1
0.1358 	1
0.1365 	1
0.1372 	1
0.1379 	1
0.1386 	1
0.1393 	1
0.14 	1
0.1407 	1
0.1414 	1
0.1421 	1
0.1428 	1
0.1435 	1
0.1442 	1
0.1449 	1
0.1456 	1
0.1463 	1
0.147 	1
0.1477 	1
0.1484 	1
0.1491 	1
0.1498 	1
0.1505 	1
0.1512 	1
0.1519 	1
0.1526 	1
0.1533 	1
0.154 	1
0.1547 	1
0.1554 	1
0.1561 	1
0.1568 	1
0.1575 	1
0.1582 	1
0.1589 	1
0.1596 	1
0.1603 	1
0.161 	1
0.1617 	1
0.1624 	1
0.1631 	1
0.1638 	1
0.1645 	1
0.1652 	1
0.1659 	1
0.1666 	1
0.1673 	1
0.168 	1
0.1687 	1
0.1694 	1
0.1701 	1
0.1708 	1
0.1715 	1
0.1722 	1
0.1729 	1
0.1736 	1
0.1743 	1
0.175 	1
0.1757 	1
0.1764 	0.999995
0.1771 	0.999981
0.1778 	0.999967
0.1785 	0.999953
0.1792 	0.999923
0.1799 	0.999886
0.1806 	0.999849
0.1813 	0.999683
0.182 	0.998302
0.1827 	0.996985
0.1834 	0.995669
0.1841 	0.993442
0.1848 	0.990305
0.1855 	0.98716
0.1862 	0.98401
0.1869 	0.964686
0.1876 	0.944948
0.1883 	0.925209
0.189 	0.898091
0.1897 	0.857688
0.1904 	0.816717
0.1911 	0.775319
0.1918 	0.718652
0.1925 	0.658228
0.1932 	0.597803
0.1939 	0.532936
0.1946 	0.451779
0.1953 	0.369619
0.196 	0.286121
0.1967 	0.224921
0.1974 	0.174951
0.1981 	0.124981
0.1988 	0.0776918
0.1995 	0.0652587
0.2002 	0.0524212
0.2009 	0.0385724
0.2016 	0.0279379
0.2023 	0.0196924
0.203 	0.0114469
0.2037 	0.00320142
0.2044 	0.00223932
0.2051 	0.00182975
0.2058 	0.0013734
0.2065 	0.000995778
0.2072 	0.000720282
0.2079 	0.000444785
0.2086 	0.000169289
0.2093 	9.67557e-05
0.21 	7.95781e-05
0.2107 	6.02928e-05
0.2114 	4.32292e-05
0.2121 	3.1679e-05
0.2128 	2.01288e-05
0.2135 	8.57869e-06
0.2142 	4.00797e-06
0.2149 	3.31485e-06
0.2156 	2.54412e-06
0.2163 	1.79233e-06
0.217 	1.33586e-06
0.2177 	8.65021e-07
0.2184 	3.94185e-07
0.2191 	1.46504e-07
0.2198 	1.21985e-07
0.2205 	9.49564e-08
0.2212 	6.69247e-08
0.2219 	5.00641e-08
0.2226 	3.30797e-08
0.2233 	1.60953e-08
0.224 	4.8959e-09
0.2247 	4.1098e-09
0.2254 	3.25192e-09
0.2261 	2.34022e-09
0.2268 	1.7372e-09
0.2275 	1.17761e-09
0.2282 	6.18017e-10
0.2289 	1.72971e-10
0.2296 	1.47941e-10
0.2303 	1.21019e-10
0.231 	9.15735e-11
0.2317 	7.01897e-11
0.2324 	5.15797e-11
0.2331 	3.29698e-11
0.2338 	1.55838e-11
0.2345 	1.41109e-11
0.2352 	1.25785e-11
0.2359 	1.08977e-11
0.2366 	9.50627e-12
0.2373 	8.30385e-12
0.238 	7.10143e-12
0.2387 	5.89902e-12
0.2394 	5.41066e-12
0.2401 	4.97209e-12
0.2408 	4.50269e-12
0.2415 	4.07641e-12
0.2422 	3.70469e-12
0.2429 	3.33298e-12
0.2436 	2.96126e-12
0.2443 	2.70325e-12
0.245 	2.47626e-12
0.2457 	2.2371e-12
0.2464 	2.01219e-12
0.2471 	1.82635e-12
0.2478 	1.64051e-12
0.2485 	1.45467e-12
0.2492 	1.31323e-12
0.2499 	1.19646e-12
0.2506 	1.07609e-12
0.2513 	9.57665e-13
0.252 	8.66015e-13
0.2527 	7.73695e-13
0.2534 	6.81375e-13
0.2541 	6.06633e-13
0.2548 	5.49469e-13
0.2555 	4.91289e-13
0.2562 	4.32703e-13
0.2569 	3.8812e-13
0.2576 	3.44065e-13
0.2583 	3.00009e-13
0.259 	2.62142e-13
0.2597 	2.35416e-13
0.2604 	2.08405e-13
0.2611 	1.81181e-13
0.2618 	1.59982e-13
0.2625 	1.40151e-13
0.2632 	1.2032e-13
0.2639 	1.02325e-13
0.2646 	9.10604e-14
0.2653 	7.9723e-14
0.266 	6.82889e-14
0.2667 	5.91443e-14
0.2674 	5.11448e-14
0.2681 	4.31454e-14
0.2688 	3.54225e-14
0.2695 	3.12957e-14
0.2702 	2.71552e-14
0.2709 	2.29805e-14
0.2716 	1.95105e-14
0.2723 	1.66942e-14
0.273 	1.38779e-14
0.2737 	1.10615e-14
0.2744 	9.63188e-15
0.2751 	8.30754e-15
0.2758 	6.97496e-15
0.2765 	5.81291e-15
0.2772 	4.93986e-15
0.2779 	4.0668e-15
0.2786 	3.19375e-15
0.2793 	2.70723e-15
0.28 	2.32614e-15
0.2807 	1.94422e-15
0.2814 	1.59302e-15
0.2821 	1.34864e-15
0.2828 	1.10426e-15
0.2835 	8.59887e-16
0.2842 	7.07493e-16
0.2849 	6.06203e-16
0.2856 	5.05179e-16
0.2863 	4.06968e-16
0.287 	3.43783e-16
0.2877 	2.80511e-16
0.2884 	2.17239e-16
0.2891 	1.73019e-16
0.2898 	1.47851e-16
0.2905 	1.22808e-16
0.2912 	9.78148e-17
0.2919 	8.18046e-17
0.2926 	6.64834e-17
0.2933 	5.11622e-17
0.294 	3.92408e-17
0.2947 	3.3439e-17
0.2954 	2.76635e-17
0.2961 	2.19075e-17
0.2968 	1.79608e-17
0.2975 	1.45161e-17
0.2982 	1.10714e-17
0.2989 	8.10412e-18
0.2996 	6.88738e-18
0.3003 	5.67444e-18
0.301 	4.46656e-18
0.3017 	3.57943e-18
0.3024 	2.87471e-18
0.3031 	2.16999e-18
0.3038 	1.49932e-18
0.3045 	1.27139e-18
0.3052 	1.04392e-18
0.3059 	8.17614e-19
0.3066 	6.39333e-19
0.3073 	5.1055e-19
0.308 	3.81767e-19
0.3087 	2.52985e-19
0.3094 	2.08685e-19
0.3101 	1.70927e-19
0.3108 	1.33432e-19
0.3115 	1.01725e-19
0.3122 	8.08794e-20
0.3129 	6.00335e-20
0.3136 	3.91876e-20
0.3143 	3.0368e-20
0.315 	2.48283e-20
0.3157 	1.93443e-20
0.3164 	1.43683e-20
0.3171 	1.13846e-20
0.3178 	8.40098e-21
0.3185 	5.41734e-21
0.3192 	3.89257e-21
0.3199 	3.17831e-21
0.3206 	2.47204e-21
0.3213 	1.78852e-21
0.322 	1.4111e-21
0.3227 	1.03569e-21
0.3234 	6.60283e-22
0.3241 	4.32691e-22
0.3248 	3.5292e-22
0.3255 	2.74067e-22
0.3262 	1.95583e-22
0.3269 	1.51501e-22
0.3276 	1.10629e-22
0.3283 	6.97567e-23
0.329 	4.07908e-23
0.3297 	3.32568e-23
0.3304 	2.57987e-23
0.3311 	1.83976e-23
0.3318 	1.37972e-23
0.3325 	1.00323e-23
0.3332 	6.26727e-24
0.3339 	3.18322e-24
0.3346 	2.59599e-24
0.3353 	2.0131e-24
0.336 	1.43599e-24
0.3367 	1.04072e-24
0.3374 	7.54292e-25
0.3381 	4.6786e-25
0.3388 	1.99271e-25
0.3395 	1.62647e-25
0.3402 	1.26175e-25
0.3409 	9.00842e-26
0.3416 	6.2958e-26
0.3423 	4.55273e-26
0.343 	2.80966e-26
0.3437 	1.06659e-26
0.3444 	7.80268e-27
0.3451 	6.06217e-27
0.3458 	4.3339e-27
0.3465 	2.91317e-27
0.3472 	2.10443e-27
0.3479 	1.29569e-27
0.3486 	4.8695e-28
0.3493 	2.67281e-28
0.35 	2.08273e-28
0.3507 	1.49137e-28
0.3514 	9.60922e-29
0.3521 	6.9447e-29
0.3528 	4.28017e-29
0.3535 	1.61564e-29
0.3542 	5.82668e-30
0.3549 	4.56135e-30
0.3556 	3.27362e-30
0.3563 	2.02119e-30
0.357 	1.45686e-30
0.3577 	9.02925e-31
0.3584 	3.48995e-31
0.3591 	6.51584e-32
0.3598 	5.14208e-32
0.3605 	3.70549e-32
0.3612 	2.24378e-32
0.3619 	1.56268e-32
0.3626 	9.81252e-33
0.3633 	3.99821e-33
0.364 	2.43336e-34
0.3647 	1.95564e-34
0.3654 	1.42539e-34
0.3661 	8.55759e-35
0.3668 	5.56619e-35
0.3675 	3.57492e-35
0.3682 	1.58365e-35
0.3689 	1.84084e-37
0.3696 	1.5359e-37
0.3703 	1.15767e-37
0.371 	6.81712e-38
0.3717 	3.99921e-38
0.3724 	2.63477e-38
0.3731 	1.27032e-38
0.3738 	3.29906e-41
0.3745 	2.861e-41
0.3752 	2.28135e-41
0.3759 	1.34772e-41
0.3766 	7.10254e-42
0.3773 	4.79134e-42
0.378 	2.48014e-42
0.3787 	1.68943e-43
0.3794 	3.43906e-45
0.3801 	2.89987e-45
0.3808 	1.74992e-45
0.3815 	8.44923e-46
0.3822 	5.82173e-46
0.3829 	3.19424e-46
0.3836 	5.66751e-47
0.3843 	3.39523e-49
0.385 	3.00282e-49
0.3857 	1.86446e-49
0.3864 	8.44066e-50
0.3871 	5.92739e-50
0.3878 	3.41412e-50
0.3885 	9.00851e-51
0.3892 	3.02576e-53
0.3899 	2.69079e-53
0.3906 	1.78025e-53
0.3913 	7.89863e-54
0.392 	5.47562e-54
0.3927 	3.28644e-54
0.3934 	1.09725e-54
0.3941 	2.51645e-57
0.3948 	2.24632e-57
0.3955 	1.57692e-57
0.3962 	7.47809e-58
0.3969 	4.71097e-58
0.3976 	2.92922e-58
0.3983 	1.14747e-58
0.399 	1.97696e-61
0.3997 	1.77239e-61
0.4004 	1.31511e-61
0.4011 	6.68281e-62
0.4018 	3.81643e-62
0.4025 	2.44697e-62
0.4032 	1.07752e-62
0.4039 	1.47883e-65
0.4046 	1.33273e-65
0.4053 	1.0426e-65
0.406 	5.60453e-66
0.4067 	2.93735e-66
0.4074 	1.93472e-66
0.4081 	9.32089e-67
0.4088 	1.06208e-69
0.4095 	9.62664e-70
0.4102 	7.92774e-70
0.4109 	4.46697e-70
0.4116 	2.1683e-70
0.4123 	1.46258e-70
0.413 	7.56863e-71
0.4137 	5.11452e-72
0.4144 	4.88007e-74
0.4151 	2.55468e-74
0.4158 	2.13491e-74
0.4165 	1.54325e-74
0.4172 	1.06126e-74
0.4179 	5.79273e-75
0.4186 	9.72854e-76
0.4193 	-1.4225e-74
0.42 	-3.22534e-74
0.4207 	-1.42282e-74
0.4214 	-6.5277e-77
0.4221 	-6.46652e-77
0.4228 	-6.40534e-77
0.4235 	-6.34416e-77
0.4242 	-8.3671e-75
0.4249 	-2.12843e-74
0.4256 	-1.20518e-74
0.4263 	-5.01605e-77
0.427 	-4.81308e-77
0.4277 	-4.62504e-77
0.4284 	-4.43701e-77
0.4291 	-4.47827e-75
0.4298 	-1.3348e-74
0.4305 	-9.54296e-75
0.4312 	-6.67989e-76
0.4319 	-3.23618e-77
0.4326 	-3.10003e-77
0.4333 	-2.96388e-77
0.434 	-2.13634e-75
0.4347 	-8.03762e-75
0.4354 	-7.19248e-75
0.4361 	-1.28755e-75
0.4368 	-2.11624e-77
0.4375 	-2.02262e-77
0.4382 	-1.929e-77
0.4389 	-8.33694e-76
0.4396 	-4.63775e-75
0.4403 	-5.18013e-75
0.441 	-1.3736e-75
0.4417 	-1.35123e-77
0.4424 	-1.28881e-77
0.4431 	-1.22639e-77
0.4438 	-1.81763e-76
0.4445 	-2.563e-75
0.4452 	-3.58306e-75
0.4459 	-1.2002e-75
0.4466 	-8.42177e-78
0.4473 	-8.0159e-78
0.448 	-7.61004e-78
0.4487 	-7.20417e-78
0.4494 	-1.35161e-75
0.4501 	-2.38564e-75
0.4508 	-9.36732e-76
0.4515 	-5.11381e-78
0.4522 	-4.85695e-78
0.4529 	-4.6001e-78
0.4536 	-4.34324e-78
0.4543 	-6.76017e-76
0.455 	-1.53095e-75
0.4557 	-6.75363e-76
0.4564 	-3.0269e-78
0.4571 	-2.86916e-78
0.4578 	-2.71142e-78
0.4585 	-2.55368e-78
0.4592 	-3.17515e-76
0.4599 	-8.07545e-76
0.4606 	-4.57184e-76
0.4613 	-1.75343e-78
0.462 	-1.65281e-78
0.4627 	-1.55862e-78
0.4634 	-1.46443e-78
0.4641 	-1.37792e-76
0.4648 	-4.10542e-76
0.4655 	-2.93482e-76
0.4662 	-2.04981e-77
0.4669 	-9.28718e-79
0.4676 	-8.7402e-79
0.4683 	-8.19323e-79
0.469 	-5.34675e-77
0.4697 	-2.00983e-76
0.4704 	-1.79832e-76
0.4711 	-3.21837e-77
0.4718 	-5.09189e-79
0.4725 	-4.78284e-79
0.4732 	-4.47378e-79
0.4739 	-1.70385e-77
0.4746 	-9.45785e-77
0.4753 	-1.05624e-76
0.476 	-2.80092e-77
0.4767 	-2.72477e-79
0.4774 	-2.55476e-79
0.4781 	-2.38475e-79
0.4788 	-3.0536e-78
0.4795 	-4.26883e-77
0.4802 	-5.9663e-77
0.4809 	-1.99879e-77
0.4816 	-1.42334e-79
0.4823 	-1.33224e-79
0.483 	-1.24114e-79
0.4837 	-1.15004e-79
0.4844 	-1.8416e-77
0.4851 	-3.24911e-77
0.4858 	-1.27602e-77
0.4865 	-7.258e-80
0.4872 	-6.78232e-80
0.4879 	-6.30663e-80
0.4886 	-5.83095e-80
0.4893 	-7.55218e-78
0.49 	-1.70912e-77
0.4907 	-7.54115e-78
0.4914 	-3.61262e-80
0.4921 	-3.37056e-80
0.4928 	-3.12849e-80
0.4935 	-2.88643e-80
0.4942 	-2.9176e-78
0.4949 	-7.41255e-78
0.4956 	-4.19713e-78
0.4963 	-1.75945e-80
0.497 	-1.63494e-80
0.4977 	-1.5149e-80
0.4984 	-1.39485e-80
0.4991 	-1.04486e-78
0.4998 	-3.10791e-78
0.5005 	-2.22181e-78
0.5012 	-1.5606e-79
0.5019 	-7.74005e-81
0.5026 	-7.15986e-81
0.5033 	-6.57967e-81
0.504 	-3.35707e-79
0.5047 	-1.25831e-78
0.5054 	-1.12578e-78
0.5061 	-2.01878e-79
0.5068 	-3.57622e-81
0.5075 	-3.30297e-81
0.5082 	-3.02972e-81
0.5089 	-8.89949e-80
0.5096 	-4.91173e-79
0.5103 	-5.4837e-79
0.511 	-1.45593e-79
0.5117 	-1.61281e-81
0.5124 	-1.48739e-81
0.5131 	-1.36197e-81
0.5138 	-1.34563e-80
0.5145 	-1.84413e-79
0.5152 	-2.57603e-79
0.5159 	-8.6375e-80
0.5166 	-7.10044e-82
0.5173 	-6.53933e-82
0.518 	-5.97821e-82
0.5187 	-5.4171e-82
0.5194 	-6.63657e-80
0.5201 	-1.16986e-79
0.5208 	-4.59743e-80
0.5215 	-3.05219e-82
0.5222 	-2.80742e-82
0.5229 	-2.56266e-82
0.5236 	-2.31789e-82
0.5243 	-2.2768e-80
0.525 	-5.14573e-80
0.5257 	-2.27166e-80
0.5264 	-1.28127e-82
0.5271 	-1.17714e-82
0.5278 	-1.07301e-82
0.5285 	-9.6888e-83
0.5292 	-7.37999e-81
0.5299 	-1.87151e-80
0.5306 	-1.06001e-80
0.5313 	-5.25349e-83
0.532 	-4.82134e-83
0.5327 	-4.38919e-83
0.5334 	-3.95704e-83
0.5341 	-2.22442e-81
0.5348 	-6.59845e-81
0.5355 	-4.71757e-81
0.5362 	-3.34721e-82
0.5369 	-1.92935e-83
0.5376 	-1.75435e-83
0.5383 	-1.57936e-83
0.539 	-6.03635e-82
0.5397 	-2.25275e-81
0.5404 	-2.01515e-81
0.5411 	-3.6252e-82
0.5418 	-7.54465e-84
0.5425 	-6.85298e-84
0.5432 	-6.16131e-84
0.5439 	-1.35835e-82
0.5446 	-7.4352e-82
0.5453 	-8.29745e-82
0.546 	-2.2069e-82
0.5467 	-2.88352e-84
0.5474 	-2.61663e-84
0.5481 	-2.34974e-84
0.5488 	-1.7739e-83
0.5495 	-2.36664e-82
0.5502 	-3.30341e-82
0.5509 	-1.10894e-82
0.5516 	-1.07727e-84
0.5523 	-9.76707e-85
0.553 	-8.76142e-85
0.5537 	-7.75577e-85
0.5544 	-7.23888e-83
0.5551 	-1.27454e-82
0.5558 	-5.01307e-83
0.5565 	-3.93464e-85
0.5572 	-3.56455e-85
0.5579 	-3.19445e-85
0.5586 	-2.82436e-85
0.5593 	-2.11593e-83
0.56 	-4.77399e-83
0.5607 	-2.10891e-83
0.5614 	-1.40517e-85
0.5621 	-1.27212e-85
0.5628 	-1.13907e-85
0.5635 	-1.00602e-85
0.5642 	-5.85736e-84
0.5649 	-1.48197e-83
0.5656 	-8.39676e-84
0.5663 	-4.90739e-86
0.567 	-4.44004e-86
0.5677 	-3.97269e-86
0.5684 	-3.50534e-86
0.5691 	-1.5113e-84
0.5698 	-4.46849e-84
0.5705 	-3.19498e-84
0.5712 	-2.29206e-85
0.5719 	-1.51581e-86
0.5726 	-1.35539e-86
0.5733 	-1.19496e-86
0.574 	-3.51994e-85
0.5747 	-1.30701e-84
0.5754 	-1.16892e-84
0.5761 	-2.10996e-85
0.5768 	-5.06248e-87
0.5775 	-4.52424e-87
0.5782 	-3.986e-87
0.5789 	-6.82616e-86
0.5796 	-3.7019e-85
0.5803 	-4.12911e-85
0.581 	-1.10022e-85
0.5817 	-1.65429e-87
0.5824 	-1.47775e-87
0.5831 	-1.3012e-87
0.5838 	-7.81331e-87
0.5845 	-1.0128e-85
0.5852 	-1.41248e-85
0.5859 	-4.74714e-86
0.5866 	-5.29026e-88
0.5873 	-4.72408e-88
0.588 	-4.15789e-88
0.5887 	-3.59171e-88
0.5894 	-2.66696e-86
0.5901 	-4.68976e-86
0.5908 	-1.84608e-86
0.5915 	-1.65608e-88
0.5922 	-1.47848e-88
0.5929 	-1.30089e-88
0.5936 	-1.1233e-88
0.5943 	-6.72274e-87
0.595 	-1.51408e-86
0.5957 	-6.69245e-87
0.5964 	-5.07652e-89
0.5971 	-4.53152e-89
0.5978 	-3.98652e-89
0.5985 	-3.44152e-89
0.5992 	-1.60802e-87
0.5999 	-4.05889e-87
0.6006 	-2.30042e-87
0.6013 	-1.52443e-89
0.602 	-1.36074e-89
0.6027 	-1.19704e-89
0.6034 	-1.03334e-89
0.6041 	-3.59346e-88
0.6048 	-1.05901e-87
0.6055 	-7.57217e-88
0.6062 	-5.48439e-89
0.6069 	-4.00512e-90
0.6076 	-3.52366e-90
0.6083 	-3.04219e-90
0.609 	-7.27141e-89
0.6097 	-2.68663e-88
0.6104 	-2.40221e-88
0.6111 	-4.34868e-89
0.6118 	-1.15615e-90
0.6125 	-1.01741e-90
0.6132 	-8.78671e-91
0.6139 	-1.23126e-89
0.6146 	-6.61801e-89
0.6153 	-7.37798e-89
0.616 	-1.96891e-89
0.6167 	-3.27525e-91
0.6174 	-2.88329e-91
0.6181 	-2.49133e-91
0.6188 	-1.25163e-90
0.6195 	-1.57963e-89
0.6202 	-2.2012e-89
0.6209 	-7.40507e-90
0.6216 	-9.11184e-92
0.6223 	-8.02543e-92
0.623 	-6.93903e-92
0.6237 	-5.85263e-92
0.6244 	-3.6418e-90
0.6251 	-6.39633e-90
0.6258 	-2.51956e-90
0.6265 	-2.49128e-92
0.6272 	-2.19562e-92
0.6279 	-1.89997e-92
0.6286 	-1.60431e-92
0.6293 	-8.06906e-91
0.63 	-1.81427e-90
0.6307 	-8.02332e-91
0.6314 	-6.69939e-93
0.6321 	-5.90872e-93
0.6328 	-5.11805e-93
0.6335 	-4.32738e-93
0.6342 	-1.7038e-91
0.6349 	-4.29124e-91
0.6356 	-2.43271e-91
0.6363 	-1.77327e-93
0.637 	-1.56531e-93
0.6377 	-1.35734e-93
0.6384 	-1.14937e-93
0.6391 	-3.37669e-92
0.6398 	-9.921e-92
0.6405 	-7.09384e-92
0.6412 	-5.18098e-93
0.6419 	-4.08464e-94
0.6426 	-3.54618e-94
0.6433 	-3.00772e-94
0.644 	-6.08963e-93
0.6447 	-2.23954e-92
0.6454 	-2.002e-92
0.6461 	-3.63371e-93
0.6468 	-1.05029e-94
0.6475 	-9.12952e-95
0.6482 	-7.75613e-95
0.6489 	-9.24335e-94
0.6496 	-4.92631e-93
0.6503 	-5.48931e-93
0.651 	-1.46701e-93
0.6517 	-2.6603e-95
0.6524 	-2.31508e-95
0.6531 	-1.96985e-95
0.6538 	-8.55278e-95
0.6545 	-1.05202e-93
0.6552 	-1.46479e-93
0.6559 	-4.9324e-94
0.6566 	-6.62643e-96
0.6573 	-5.77148e-96
0.658 	-4.91652e-96
0.6587 	-4.06156e-96
0.6594 	-2.16602e-94
0.6601 	-3.79965e-94
0.6608 	-1.49772e-94
0.6615 	-1.61606e-96
0.6622 	-1.40787e-96
0.6629 	-1.19967e-96
0.6636 	-9.9148e-97
0.6643 	-4.24574e-95
0.665 	-9.52891e-95
0.6657 	-4.21608e-95
0.6664 	-3.82434e-97
0.6671 	-3.32849e-97
0.6678 	-2.83265e-97
0.6685 	-2.3368e-97
0.6692 	-7.74855e-96
0.6699 	-1.94659e-95
0.6706 	-1.10372e-95
0.6713 	-8.64155e-98
0.672 	-7.49976e-98
0.6727 	-6.35798e-98
0.6734 	-5.21619e-98
0.6741 	-1.26748e-96
0.6748 	-3.70955e-96
0.6755 	-2.65205e-96
0.6762 	-1.94723e-97
0.6769 	-1.56843e-98
0.6776 	-1.31956e-98
0.6783 	-1.07069e-98
0.679 	-1.74084e-97
0.6797 	-6.36018e-97
0.6804 	-5.68252e-97
0.6811 	-1.03209e-97
0.6818 	-2.92906e-99
0.6825 	-2.43297e-99
0.6832 	-1.93688e-99
0.6839 	-1.76947e-98
0.6846 	-9.30504e-98
0.6853 	-1.03578e-97
0.686 	-2.76689e-98
0.6867 	-4.62442e-100
0.6874 	-3.76577e-100
0.6881 	-2.90712e-100
0.6888 	-9.12356e-100
0.6895 	-1.07316e-98
0.6902 	-1.49171e-98
0.6909 	-5.01801e-99
0.6916 	-5.6936e-101
0.6923 	-4.50038e-101
0.693 	-3.30716e-101
0.6937 	-2.11395e-101
0.6944 	-8.53765e-100
0.6951 	-1.49374e-99
0.6958 	-5.8799e-100
0.6965 	-4.77846e-102
0.6972 	-3.62024e-102
0.6979 	-2.46202e-102
0.6986 	-1.3038e-102
0.6993 	-7.65719e-103
0.7 	-3.96768e-103
