0 	1
0.0007 	1
0.0014 	1
0.0021 	1
0.0028 	1
0.0035 	1
0.0042 	1
0.0049 	1
0.0056 	1
0.0063 	1
0.007 	1
0.0077 	1
0.0084 	1
0.0091 	1
0.0098 	1
0.0105 	1
0.0112 	1
0.0119 	1
0.0126 	1
0.0133 	1
0.014 	1
0.0147 	1
0.0154 	1
0.0161 	1
0.0168 	1
0.0175 	1
0.0182 	1
0.0189 	1
0.0196 	1
0.0203 	1
0.021 	1
0.0217 	1
0.0224 	1
0.0231 	1
0.0238 	1
0.0245 	1
0.0252 	1
0.0259 	1
0.0266 	1
0.0273 	1
0.028 	1
0.0287 	1
0.0294 	1
0.0301 	1
0.0308 	1
0.0315 	1
0.0322 	1
0.0329 	1
0.0336 	1
0.0343 	1
0.035 	1
0.0357 	1
0.0364 	1
0.0371 	1
0.0378 	1
0.0385 	1
0.0392 	1
0.0399 	1
0.0406 	1
0.0413 	1
0.042 	1
0.0427 	1
0.0434 	1
0.0441 	1
0.0448 	1
0.0455 	1
0.0462 	1
0.0469 	1
0.0476 	1
0.0483 	1
0.049 	1
0.0497 	1
0.0504 	1
0.0511 	1
0.0518 	1
0.0525 	1
0.0532 	1
0.0539 	1
0.0546 	1
0.0553 	1
0.056 	1
0.0567 	1
0.0574 	1
0.0581 	1
0.0588 	1
0.0595 	1
0.0602 	1
0.0609 	1
0.0616 	1
0.0623 	1
0.063 	1
0.0637 	1
0.0644 	1
0.0651 	1
0.0658 	1
0.0665 	1
0.0672 	1
0.0679 	1
0.0686 	1
0.0693 	1
0.07 	1
0.0707 	1
0.0714 	1
0.0721 	1
0.0728 	1
0.0735 	1
0.0742 	1
0.0749 	1
0.0756 	1
0.0763 	1
0.077 	1
0.0777 	1
0.0784 	1
0.0791 	1
0.0798 	1
0.0805 	1
0.0812 	1
0.0819 	1
0.0826 	1
0.0833 	1
0.084 	1
0.0847 	1
0.0854 	1
0.0861 	1
0.0868 	1
0.0875 	1
0.0882 	1
0.0889 	1
0.0896 	1
0.0903 	1
0.091 	1
0.0917 	1
0.0924 	1
0.0931 	1
0.0938 	1
0.0945 	1
0.0952 	1
0.0959 	1
0.0966 	1
0.0973 	1
0.098 	1
0.0987 	1
0.0994 	1
0.1001 	1
0.1008 	1
0.1015 	1
0.1022 	1
0.1029 	1
0.1036 	1
0.1043 	1
0.105 	1
0.1057 	1
0.1064 	1
0.1071 	1
0.1078 	1
0.1085 	1
0.1092 	1
0.1099 	1
0.1106 	1
0.1113 	1
0.112 	1
0.1127 	1
0.1134 	1
0.1141 	1
0.1148 	1
0.1155 	1
0.1162 	1
0.1169 	1
0.1176 	1
0.1183 	1
0.119 	1
0.1197 	1
0.1204 	1
0.1211 	1
0.1218 	1
0.1225 	1
0.1232 	1
0.1239 	1
0.1246 	1
0.1253 	1
0.126 	1
0.1267 	1
0.1274 	1
0.1281 	1
0.1288 	1
0.1295 	1
0.1302 	1
0.1309 	1
0.1316 	1
0.1323 	1
0.133 	1
0.1337 	1
0.1344 	1
0.1351 	1
0.1358 	1
0.1365 	1
0.1372 	1
0.1379 	1
0.1386 	1
0.1393 	1
0.14 	1
0.1407 	1
0.1414 	1
0.1421 	1
0.1428 	1
0.1435 	1
0.1442 	1
0.1449 	1
0.1456 	1
0.1463 	1
0.147 	1
0.1477 	1
0.1484 	1
0.1491 	1
0.1498 	1
0.1505 	1
0.1512 	1
0.1519 	1
0.1526 	1
0.1533 	1
0.154 	1
0.1547 	1
0.1554 	1
0.1561 	1
0.1568 	1
0.1575 	1
0.1582 	1
0.1589 	1
0.1596 	1
0.1603 	1
0.161 	1
0.1617 	1
0.1624 	1
0.1631 	1
0.1638 	1
0.1645 	1
0.1652 	1
0.1659 	1
0.1666 	1
0.1673 	1
0.168 	1
0.1687 	1
0.1694 	1
0.1701 	1
0.1708 	1
0.1715 	1
0.1722 	1
0.1729 	1
0.1736 	1
0.1743 	1
0.175 	1
0.1757 	1
0.1764 	1
0.1771 	1
0.1778 	1
0.1785 	1
0.1792 	1
0.1799 	1
0.1806 	1
0.1813 	1
0.182 	1
0.1827 	1
0.1834 	1
0.1841 	1
0.1848 	1
0.1855 	1
0.1862 	1
0.1869 	1
0.1876 	1
0.1883 	1
0.189 	1
0.1897 	1
0.1904 	1
0.1911 	1
0.1918 	1
0.1925 	1
0.1932 	1
0.1939 	1
0.1946 	1
0.1953 	1
0.196 	1
0.1967 	1
0.1974 	1
0.1981 	1
0.1988 	1
0.1995 	1
0.2002 	1
0.2009 	1
0.2016 	1
0.2023 	1
0.203 	1
0.2037 	1
0.2044 	1
0.2051 	1
0.2058 	1
0.2065 	1
0.2072 	1
0.2079 	1
0.2086 	1
0.2093 	1
0.21 	1
0.2107 	1
0.2114 	1
0.2121 	1
0.2128 	1
0.2135 	1
0.2142 	1
0.2149 	1
0.2156 	1
0.2163 	1
0.217 	1
0.2177 	1
0.2184 	1
0.2191 	0.999999
0.2198 	0.999999
0.2205 	0.999999
0.2212 	0.999998
0.2219 	0.999989
0.2226 	0.999981
0.2233 	0.999976
0.224 	0.999967
0.2247 	0.999953
0.2254 	0.99994
0.2261 	0.999928
0.2268 	0.999769
0.2275 	0.999599
0.2282 	0.999535
0.2289 	0.999431
0.2296 	0.999178
0.2303 	0.998987
0.231 	0.998877
0.2317 	0.99659
0.2324 	0.993292
0.2331 	0.992291
0.2338 	0.991049
0.2345 	0.986661
0.2352 	0.983086
0.2359 	0.981542
0.2366 	0.962911
0.2373 	0.927194
0.238 	0.907704
0.2387 	0.889319
0.2394 	0.839192
0.2401 	0.787199
0.2408 	0.738659
0.2415 	0.685355
0.2422 	0.623478
0.2429 	0.565662
0.2436 	0.508905
0.2443 	0.441667
0.245 	0.371572
0.2457 	0.297131
0.2464 	0.231371
0.2471 	0.197444
0.2478 	0.152531
0.2485 	0.10172
0.2492 	0.0769588
0.2499 	0.0666709
0.2506 	0.0509023
0.2513 	0.0350824
0.252 	0.0304675
0.2527 	0.0219871
0.2534 	0.00976033
0.2541 	0.00356848
0.2548 	0.00341157
0.2555 	0.00272556
0.2562 	0.00182792
0.2569 	0.0016195
0.2576 	0.00125112
0.2583 	0.000512232
0.259 	3.84845e-05
0.2597 	4.19932e-05
0.2604 	3.68762e-05
0.2611 	2.529e-05
0.2618 	2.19283e-05
0.2625 	1.87361e-05
0.2632 	8.2864e-06
0.2639 	8.00436e-08
0.2646 	9.93817e-08
0.2653 	9.78918e-08
0.266 	6.86312e-08
0.2667 	5.7286e-08
0.2674 	5.37922e-08
0.2681 	2.5931e-08
0.2688 	6.06829e-11
0.2695 	7.05469e-11
0.2702 	7.43703e-11
0.2709 	6.30923e-11
0.2716 	5.66921e-11
0.2723 	5.51697e-11
0.273 	4.50898e-11
0.2737 	3.44304e-11
0.2744 	3.28303e-11
0.2751 	3.20841e-11
0.2758 	3.22802e-11
0.2765 	3.18307e-11
0.2772 	3.02191e-11
0.2779 	2.95304e-11
0.2786 	2.90815e-11
0.2793 	2.7211e-11
0.28 	2.49529e-11
0.2807 	2.33963e-11
0.2814 	2.18148e-11
0.2821 	2.01424e-11
0.2828 	1.85703e-11
0.2835 	1.70521e-11
0.2842 	1.54587e-11
0.2849 	1.38236e-11
0.2856 	1.19596e-11
0.2863 	1.0123e-11
0.287 	9.13673e-12
0.2877 	7.92101e-12
0.2884 	6.48318e-12
0.2891 	5.50305e-12
0.2898 	4.9806e-12
0.2905 	4.17434e-12
0.2912 	3.25455e-12
0.2919 	2.87419e-12
0.2926 	2.40816e-12
0.2933 	1.72121e-12
0.294 	1.2417e-12
0.2947 	1.13556e-12
0.2954 	9.62118e-13
0.2961 	7.38197e-13
0.2968 	6.31253e-13
0.2975 	5.34915e-13
0.2982 	3.64177e-13
0.2989 	2.2533e-13
0.2996 	2.03417e-13
0.3003 	1.75558e-13
0.301 	1.39771e-13
0.3017 	1.17981e-13
0.3024 	1.02936e-13
0.3031 	7.59819e-14
0.3038 	5.05815e-14
0.3045 	4.53736e-14
0.3052 	3.9639e-14
0.3059 	3.25881e-14
0.3066 	2.74814e-14
0.3073 	2.43191e-14
0.308 	1.91968e-14
0.3087 	1.39425e-14
0.3094 	1.22892e-14
0.3101 	1.08165e-14
0.3108 	8.76543e-15
0.3115 	7.1509e-15
0.3122 	6.32219e-15
0.3129 	4.94171e-15
0.3136 	3.41818e-15
0.3143 	2.85262e-15
0.315 	2.54833e-15
0.3157 	1.99076e-15
0.3164 	1.51416e-15
0.3171 	1.33441e-15
0.3178 	1.00211e-15
0.3185 	5.88158e-16
0.3192 	4.16712e-16
0.3199 	3.79994e-16
0.3206 	2.95908e-16
0.3213 	2.08801e-16
0.322 	1.85043e-16
0.3227 	1.37609e-16
0.3234 	6.72936e-17
0.3241 	3.10688e-17
0.3248 	2.89347e-17
0.3255 	2.32203e-17
0.3262 	1.60738e-17
0.3269 	1.39989e-17
0.3276 	1.08729e-17
0.3283 	5.24739e-18
0.329 	1.57281e-18
0.3297 	1.40987e-18
0.3304 	1.16372e-18
0.3311 	8.55166e-19
0.3318 	7.08263e-19
0.3325 	5.77147e-19
0.3332 	3.47384e-19
0.3339 	1.61772e-19
0.3346 	1.38045e-19
0.3353 	1.14155e-19
0.336 	9.00494e-20
0.3367 	7.32519e-20
0.3374 	6.02543e-20
0.3381 	4.42691e-20
0.3388 	2.90996e-20
0.3395 	2.45365e-20
0.3402 	2.00859e-20
0.3409 	1.59165e-20
0.3416 	1.2669e-20
0.3423 	1.03435e-20
0.343 	7.6955e-21
0.3437 	5.02598e-21
0.3444 	4.07952e-21
0.3451 	3.27491e-21
0.3458 	2.52616e-21
0.3465 	1.91355e-21
0.3472 	1.54599e-21
0.3479 	1.09464e-21
0.3486 	6.21613e-22
0.3493 	4.49667e-22
0.35 	3.59834e-22
0.3507 	2.71483e-22
0.3514 	1.94159e-22
0.3521 	1.57267e-22
0.3528 	1.07455e-22
0.3535 	5.07405e-23
0.3542 	2.72253e-23
0.3549 	2.21544e-23
0.3556 	1.66689e-23
0.3563 	1.13672e-23
0.357 	9.35297e-24
0.3577 	6.48426e-24
0.3584 	2.79117e-24
0.3591 	8.71865e-25
0.3598 	7.26365e-25
0.3605 	5.55107e-25
0.3612 	3.73547e-25
0.3619 	3.05637e-25
0.3626 	2.22399e-25
0.3633 	9.74897e-26
0.364 	1.63335e-26
0.3647 	1.3933e-26
0.3654 	1.0932e-26
0.3661 	7.48062e-27
0.3668 	5.91321e-27
0.3675 	4.55246e-27
0.3682 	2.12383e-27
0.3689 	2.09429e-28
0.3696 	1.8053e-28
0.3703 	1.45121e-28
0.371 	1.0103e-28
0.3717 	7.65783e-29
0.3724 	6.1638e-29
0.3731 	3.07246e-29
0.3738 	1.99809e-30
0.3745 	1.70261e-30
0.3752 	1.37623e-30
0.3759 	9.72631e-31
0.3766 	7.05038e-31
0.3773 	5.73456e-31
0.378 	3.07212e-31
0.3787 	3.20317e-32
0.3794 	1.05782e-32
0.3801 	8.57252e-33
0.3808 	6.14777e-33
0.3815 	4.30829e-33
0.3822 	3.52229e-33
0.3829 	2.04631e-33
0.3836 	3.92386e-34
0.3843 	3.39144e-35
0.385 	2.87508e-35
0.3857 	2.0985e-35
0.3864 	1.443e-35
0.3871 	1.2315e-35
0.3878 	7.87277e-36
0.3885 	2.18942e-36
0.3892 	1.59594e-37
0.3899 	1.59519e-37
0.3906 	1.26535e-37
0.3913 	9.03679e-38
0.392 	8.41323e-38
0.3927 	6.54614e-38
0.3934 	3.48137e-38
0.3941 	2.03536e-38
0.3948 	2.20809e-38
0.3955 	1.89793e-38
0.3962 	1.3946e-38
0.3969 	1.30318e-38
0.3976 	1.12638e-38
0.3983 	7.47311e-39
0.399 	5.27243e-39
0.3997 	5.93374e-39
0.4004 	5.37362e-39
0.4011 	3.89743e-39
0.4018 	3.47386e-39
0.4025 	3.109e-39
0.4032 	1.95215e-39
0.4039 	1.0832e-39
0.4046 	1.2699e-39
0.4053 	1.22583e-39
0.406 	8.74058e-40
0.4067 	7.33087e-40
0.4074 	6.86844e-40
0.4081 	3.86712e-40
0.4088 	1.10051e-40
0.4095 	1.3851e-40
0.4102 	1.46903e-40
0.4109 	1.05127e-40
0.4116 	8.33606e-41
0.4123 	8.16037e-41
0.413 	4.51778e-41
0.4137 	6.46914e-42
0.4144 	4.96691e-42
0.4151 	5.9013e-42
0.4158 	4.28292e-42
0.4165 	3.23078e-42
0.4172 	3.19789e-42
0.4179 	1.93924e-42
0.4186 	3.65341e-43
0.4193 	3.78898e-44
0.42 	5.03802e-44
0.4207 	3.70963e-44
0.4214 	2.66376e-44
0.4221 	2.65379e-44
0.4228 	1.7908e-44
0.4235 	4.73791e-45
0.4242 	4.49226e-47
0.4249 	6.14707e-47
0.4256 	4.94159e-47
0.4263 	3.37931e-47
0.427 	3.3759e-47
0.4277 	2.51845e-47
0.4284 	8.39954e-48
0.4291 	8.79733e-51
0.4298 	1.22802e-50
0.4305 	1.0777e-50
0.4312 	7.27922e-51
0.4319 	7.02768e-51
0.4326 	5.74344e-51
0.4333 	2.2478e-51
0.434 	7.02689e-55
0.4347 	9.98148e-55
0.4354 	9.55436e-55
0.4361 	6.59095e-55
0.4368 	5.95509e-55
0.4375 	5.28995e-55
0.4382 	2.32778e-55
0.4389 	4.05484e-59
0.4396 	5.86623e-59
0.4403 	6.12206e-59
0.441 	4.30381e-59
0.4417 	3.65389e-59
0.4424 	3.50505e-59
0.4431 	1.68774e-59
0.4438 	2.49829e-63
0.4445 	3.68432e-63
0.4452 	4.19036e-63
0.4459 	2.99645e-63
0.4466 	2.399e-63
0.4473 	2.39803e-63
0.448 	1.27828e-63
0.4487 	8.5445e-65
0.4494 	3.51245e-67
0.4501 	4.35508e-67
0.4508 	3.16275e-67
0.4515 	2.39578e-67
0.4522 	2.39447e-67
0.4529 	1.44638e-67
0.4536 	2.55485e-68
0.4543 	4.05146e-71
0.455 	5.48482e-71
0.4557 	4.03978e-71
0.4564 	2.90408e-71
0.4571 	2.90263e-71
0.4578 	1.97971e-71
0.4585 	5.67354e-72
0.4592 	8.30348e-73
0.4599 	1.14296e-72
0.4606 	9.19497e-73
0.4613 	6.2903e-73
0.462 	6.29005e-73
0.4627 	4.89753e-73
0.4634 	2.169e-73
0.4641 	1.00378e-73
0.4648 	1.40187e-73
0.4655 	1.23112e-73
0.4662 	8.32837e-74
0.4669 	8.04361e-74
0.4676 	6.61158e-74
0.4683 	2.71557e-74
0.469 	2.33281e-75
0.4697 	2.95679e-75
0.4704 	2.8674e-75
0.4711 	2.24297e-75
0.4718 	2.1085e-75
0.4725 	1.88346e-75
0.4732 	8.8493e-76
0.4739 	-4.81261e-77
0.4746 	-7.41124e-76
0.4753 	-8.40131e-76
0.476 	-1.47149e-76
0.4767 	9.89907e-77
0.4774 	9.39796e-77
0.4781 	5.64109e-77
0.4788 	-5.55292e-77
0.4795 	-1.13431e-75
0.4802 	-1.59913e-75
0.4809 	-5.29055e-76
0.4816 	4.42356e-78
0.4823 	1.30425e-78
0.483 	-1.17168e-77
0.4837 	-2.53795e-77
0.4844 	-1.42811e-75
0.4851 	-2.50746e-75
0.4858 	-1.00545e-75
0.4865 	-4.09317e-77
0.4872 	-4.38792e-77
0.4879 	-4.84627e-77
0.4886 	-5.34646e-77
0.4893 	-1.56852e-75
0.49 	-3.49541e-75
0.4907 	-1.57718e-75
0.4914 	-7.06047e-77
0.4921 	-7.34532e-77
0.4928 	-7.84834e-77
0.4935 	-8.46699e-77
0.4942 	-1.53818e-75
0.4949 	-3.79575e-75
0.4956 	-2.19071e-75
0.4963 	-1.02807e-76
0.497 	-1.0684e-76
0.4977 	-1.14026e-76
0.4984 	-1.24233e-76
0.4991 	-1.46279e-75
0.4998 	-4.12969e-75
0.5005 	-2.99695e-75
0.5012 	-3.4435e-76
0.5019 	-1.67467e-76
0.5026 	-1.84528e-76
0.5033 	-2.07612e-76
0.504 	-1.63616e-75
0.5047 	-5.59457e-75
0.5054 	-5.0609e-75
0.5061 	-1.15818e-75
0.5068 	-3.67248e-76
0.5075 	-4.34855e-76
0.5082 	-5.36403e-76
0.5089 	-2.39795e-75
0.5096 	-1.07129e-74
0.5103 	-1.2007e-74
0.511 	-3.94017e-75
0.5117 	-1.1872e-75
0.5124 	-1.40273e-75
0.5131 	-1.80047e-75
0.5138 	-3.57105e-75
0.5145 	-2.31888e-74
0.5152 	-3.18365e-74
0.5159 	-1.30591e-74
0.5166 	-3.92709e-75
0.5173 	-4.44056e-75
0.518 	-5.54578e-75
0.5187 	-6.68905e-75
0.5194 	-4.68531e-74
0.5201 	-7.79785e-74
0.5208 	-3.6862e-74
0.5215 	-1.0804e-74
0.5222 	-1.18513e-74
0.5229 	-1.40712e-74
0.5236 	-1.65902e-74
0.5243 	-8.4684e-74
0.525 	-1.70662e-73
0.5257 	-8.86475e-74
0.5264 	-2.45999e-74
0.5271 	-2.64306e-74
0.5278 	-3.01004e-74
0.5285 	-3.47432e-74
0.5292 	-1.37846e-73
0.5299 	-2.95648e-73
0.5306 	-1.8867e-73
0.5313 	-4.85616e-74
0.532 	-5.14667e-74
0.5327 	-5.68124e-74
0.5334 	-6.44918e-74
0.5341 	-2.03804e-73
0.5348 	-4.74749e-73
0.5355 	-3.66064e-73
0.5362 	-1.05526e-73
0.5369 	-9.08768e-74
0.5376 	-9.79064e-74
0.5383 	-1.09674e-73
0.539 	-2.7308e-73
0.5397 	-7.09436e-73
0.5404 	-6.5567e-73
0.5411 	-2.34313e-73
0.5418 	-1.48505e-73
0.5425 	-1.56669e-73
0.5432 	-1.73274e-73
0.5439 	-3.26452e-73
0.5446 	-9.80402e-73
0.5453 	-1.08217e-72
0.546 	-4.4769e-73
0.5467 	-2.25364e-73
0.5474 	-2.33184e-73
0.5481 	-2.54004e-73
0.5488 	-3.3745e-73
0.5495 	-1.23504e-72
0.5502 	-1.62586e-72
0.5509 	-7.49733e-73
0.5516 	-3.14771e-73
0.5523 	-3.2097e-73
0.553 	-3.41677e-73
0.5537 	-3.6331e-73
0.5544 	-1.39305e-72
0.5551 	-2.18651e-72
0.5558 	-1.09702e-72
0.5565 	-3.97986e-73
0.5572 	-4.01766e-73
0.5579 	-4.15523e-73
0.5586 	-4.31819e-73
0.5593 	-1.38764e-72
0.56 	-2.5997e-72
0.5607 	-1.39522e-72
0.5614 	-4.48818e-73
0.5621 	-4.48758e-73
0.5628 	-4.52085e-73
0.5635 	-4.57201e-73
0.5642 	-1.21453e-72
0.5649 	-2.38977e-72
0.5656 	-1.54555e-72
0.5663 	-4.48833e-73
0.567 	-4.45045e-73
0.5677 	-4.3924e-73
0.5684 	-4.31509e-73
0.5691 	-9.36272e-73
0.5698 	-1.95353e-72
0.5705 	-1.50613e-72
0.5712 	-4.72873e-73
0.5719 	-3.93455e-73
0.5726 	-3.83286e-73
0.5733 	-3.66059e-73
0.574 	-6.39381e-73
0.5747 	-1.43569e-72
0.5754 	-1.31019e-72
0.5761 	-4.9332e-73
0.5768 	-3.1318e-73
0.5775 	-3.03427e-73
0.5782 	-2.82489e-73
0.5789 	-3.88588e-73
0.5796 	-9.60489e-73
0.5803 	-1.03375e-72
0.581 	-4.42166e-73
0.5817 	-2.27264e-73
0.5824 	-2.20468e-73
0.5831 	-2.00838e-73
0.5838 	-2.09884e-73
0.5845 	-5.91734e-73
0.5852 	-7.50869e-73
0.5859 	-3.53215e-73
0.5866 	-1.52267e-73
0.5873 	-1.48025e-73
0.588 	-1.33077e-73
0.5887 	-1.17449e-73
0.5894 	-3.38797e-73
0.5901 	-5.08319e-73
0.5908 	-2.57519e-73
0.5915 	-9.52612e-74
0.5922 	-9.23817e-74
0.5929 	-8.29728e-74
0.5936 	-7.19058e-74
0.5943 	-1.81372e-73
0.595 	-3.23711e-73
0.5957 	-1.74097e-73
0.5964 	-5.61566e-74
0.5971 	-5.4353e-74
0.5978 	-4.90373e-74
0.5985 	-4.18688e-74
0.5992 	-9.10444e-74
0.5999 	-1.71522e-73
0.6006 	-1.10278e-73
0.6013 	-3.13999e-74
0.602 	-3.03422e-74
0.6027 	-2.76132e-74
0.6034 	-2.32902e-74
0.6041 	-4.28398e-74
0.6048 	-8.62619e-74
0.6055 	-6.58745e-74
0.6062 	-1.99632e-74
0.6069 	-1.61398e-74
0.6076 	-1.48644e-74
0.6083 	-1.24101e-74
0.609 	-1.88275e-74
0.6097 	-4.12144e-74
0.6104 	-3.72518e-74
0.6111 	-1.35269e-74
0.6118 	-8.20097e-75
0.6125 	-7.66385e-75
0.6132 	-6.34315e-75
0.6139 	-7.66986e-75
0.6146 	-1.87037e-74
0.6153 	-1.99871e-74
0.616 	-8.26963e-75
0.6167 	-3.98573e-75
0.6174 	-3.78807e-75
0.6181 	-3.11201e-75
0.6188 	-2.85561e-75
0.6195 	-8.05496e-75
0.6202 	-1.01883e-74
0.6209 	-4.65647e-75
0.6216 	-1.85383e-75
0.6223 	-1.78035e-75
0.623 	-1.46575e-75
0.6237 	-1.13589e-75
0.6244 	-3.28732e-75
0.6251 	-4.93838e-75
0.6258 	-2.44206e-75
0.6265 	-8.25358e-76
0.6272 	-7.9198e-76
0.6279 	-6.62746e-76
0.6286 	-5.09196e-76
0.6293 	-1.26897e-75
0.63 	-2.27784e-75
0.6307 	-1.20097e-75
0.6314 	-3.5177e-76
0.6321 	-3.37316e-76
0.6328 	-2.8765e-76
0.6335 	-2.19423e-76
0.6342 	-4.62192e-76
0.6349 	-8.77735e-76
0.6356 	-5.56394e-76
0.6363 	-1.43538e-76
0.637 	-1.3757e-76
0.6377 	-1.19837e-76
0.6384 	-9.08892e-77
0.6391 	-1.58292e-76
0.6398 	-3.22044e-76
0.6405 	-2.43666e-76
0.6412 	-6.84349e-77
0.6419 	-5.37359e-77
0.6426 	-4.79223e-77
0.6433 	-3.61899e-77
0.644 	-5.07118e-77
0.6447 	-1.12491e-76
0.6454 	-1.01156e-76
0.6461 	-3.49839e-77
0.6468 	-2.011e-77
0.6475 	-1.83981e-77
0.6482 	-1.38534e-77
0.6489 	-1.50688e-77
0.6496 	-3.74043e-77
0.6503 	-3.99075e-77
0.651 	-1.59677e-77
0.6517 	-7.21396e-78
0.6524 	-6.78282e-78
0.6531 	-5.09926e-78
0.6538 	-4.0893e-78
0.6545 	-1.18362e-77
0.6552 	-1.49964e-77
0.6559 	-6.68976e-78
0.6566 	-2.48201e-78
0.6573 	-2.37321e-78
0.658 	-1.80531e-78
0.6587 	-1.20841e-78
0.6594 	-3.56247e-78
0.6601 	-5.37941e-78
0.6608 	-2.61162e-78
0.6615 	-8.19577e-79
0.6622 	-7.8386e-79
0.6629 	-6.14925e-79
0.6636 	-4.12211e-79
0.6643 	-1.01861e-78
0.665 	-1.84567e-78
0.6657 	-9.5899e-79
0.6664 	-2.59906e-79
0.6671 	-2.48679e-79
0.6678 	-2.01581e-79
0.6685 	-1.35579e-79
0.6692 	-2.76036e-79
0.6699 	-5.31192e-79
0.6706 	-3.33307e-79
0.6713 	-7.92025e-80
0.672 	-7.58197e-80
0.6727 	-6.36112e-80
0.6734 	-4.29914e-80
0.6741 	-7.06006e-80
0.6748 	-1.46439e-79
0.6755 	-1.10117e-79
0.6762 	-2.89319e-80
0.6769 	-2.22252e-80
0.6776 	-1.93251e-80
0.6783 	-1.31399e-80
0.679 	-1.69205e-80
0.6797 	-3.86399e-80
0.6804 	-3.46777e-80
0.6811 	-1.14544e-80
0.6818 	-6.26497e-81
0.6825 	-5.65191e-81
0.6832 	-3.86969e-81
0.6839 	-3.75317e-81
0.6846 	-9.74425e-81
0.6853 	-1.04262e-80
0.686 	-4.02931e-81
0.6867 	-1.69834e-81
0.6874 	-1.59105e-81
0.6881 	-1.09768e-81
0.6888 	-7.5315e-82
0.6895 	-2.34367e-81
0.6902 	-2.99532e-81
0.6909 	-1.29976e-81
0.6916 	-4.42779e-82
0.6923 	-4.24363e-82
0.693 	-2.99837e-82
0.6937 	-1.68608e-82
0.6944 	-5.36375e-82
0.6951 	-8.22758e-82
0.6958 	-3.90538e-82
0.6965 	-1.11379e-82
0.6972 	-1.07733e-82
0.6979 	-8.55429e-83
0.6986 	-5.86513e-83
0.6993 	-1.83478e-82
0.7 	-3.49682e-82
