0 	1
0.0007 	1
0.0014 	1
0.0021 	1
0.0028 	1
0.0035 	1
0.0042 	1
0.0049 	1
0.0056 	1
0.0063 	1
0.007 	1
0.0077 	1
0.0084 	1
0.0091 	1
0.0098 	1
0.0105 	1
0.0112 	1
0.0119 	1
0.0126 	1
0.0133 	1
0.014 	1
0.0147 	1
0.0154 	1
0.0161 	1
0.0168 	1
0.0175 	1
0.0182 	1
0.0189 	1
0.0196 	1
0.0203 	1
0.021 	1
0.0217 	1
0.0224 	1
0.0231 	1
0.0238 	1
0.0245 	1
0.0252 	1
0.0259 	1
0.0266 	1
0.0273 	1
0.028 	1
0.0287 	1
0.0294 	1
0.0301 	1
0.0308 	1
0.0315 	1
0.0322 	1
0.0329 	1
0.0336 	1
0.0343 	1
0.035 	1
0.0357 	1
0.0364 	1
0.0371 	1
0.0378 	1
0.0385 	1
0.0392 	1
0.0399 	1
0.0406 	1
0.0413 	1
0.042 	1
0.0427 	1
0.0434 	1
0.0441 	1
0.0448 	1
0.0455 	1
0.0462 	1
0.0469 	1
0.0476 	1
0.0483 	1
0.049 	1
0.0497 	1
0.0504 	1
0.0511 	1
0.0518 	1
0.0525 	1
0.0532 	1
0.0539 	1
0.0546 	1
0.0553 	1
0.056 	1
0.0567 	1
0.0574 	1
0.0581 	1
0.0588 	1
0.0595 	1
0.0602 	1
0.0609 	1
0.0616 	1
0.0623 	1
0.063 	1
0.0637 	1
0.0644 	1
0.0651 	1
0.0658 	1
0.0665 	1
0.0672 	1
0.0679 	1
0.0686 	1
0.0693 	1
0.07 	1
0.0707 	1
0.0714 	1
0.0721 	1
0.0728 	1
0.0735 	1
0.0742 	1
0.0749 	1
0.0756 	1
0.0763 	1
0.077 	1
0.0777 	1
0.0784 	1
0.0791 	1
0.0798 	1
0.0805 	1
0.0812 	1
0.0819 	1
0.0826 	1
0.0833 	1
0.084 	1
0.0847 	1
0.0854 	1
0.0861 	1
0.0868 	1
0.0875 	1
0.0882 	1
0.0889 	1
0.0896 	1
0.0903 	1
0.091 	1
0.0917 	1
0.0924 	1
0.0931 	1
0.0938 	1
0.0945 	1
0.0952 	1
0.0959 	1
0.0966 	1
0.0973 	1
0.098 	1
0.0987 	1
0.0994 	1
0.1001 	1
0.1008 	1
0.1015 	1
0.1022 	1
0.1029 	1
0.1036 	1
0.1043 	1
0.105 	1
0.1057 	1
0.1064 	1
0.1071 	1
0.1078 	1
0.1085 	1
0.1092 	1
0.1099 	1
0.1106 	1
0.1113 	1
0.112 	1
0.1127 	1
0.1134 	1
0.1141 	1
0.1148 	1
0.1155 	1
0.1162 	1
0.1169 	1
0.1176 	1
0.1183 	1
0.119 	1
0.1197 	1
0.1204 	1
0.1211 	1
0.1218 	1
0.1225 	1
0.1232 	1
0.1239 	1
0.1246 	1
0.1253 	1
0.126 	1
0.1267 	1
0.1274 	1
0.1281 	1
0.1288 	1
0.1295 	1
0.1302 	1
0.1309 	1
0.1316 	1
0.1323 	1
0.133 	1
0.1337 	1
0.1344 	1
0.1351 	1
0.1358 	1
0.1365 	1
0.1372 	1
0.1379 	1
0.1386 	1
0.1393 	1
0.14 	1
0.1407 	1
0.1414 	1
0.1421 	1
0.1428 	1
0.1435 	1
0.1442 	1
0.1449 	1
0.1456 	1
0.1463 	1
0.147 	1
0.1477 	1
0.1484 	1
0.1491 	1
0.1498 	1
0.1505 	1
0.1512 	1
0.1519 	1
0.1526 	1
0.1533 	1
0.154 	1
0.1547 	1
0.1554 	1
0.1561 	1
0.1568 	1
0.1575 	1
0.1582 	1
0.1589 	1
0.1596 	1
0.1603 	1
0.161 	1
0.1617 	1
0.1624 	1
0.1631 	1
0.1638 	1
0.1645 	1
0.1652 	1
0.1659 	1
0.1666 	1
0.1673 	1
0.168 	1
0.1687 	1
0.1694 	1
0.1701 	1
0.1708 	1
0.1715 	1
0.1722 	1
0.1729 	1
0.1736 	1
0.1743 	1
0.175 	1
0.1757 	1
0.1764 	0.999997
0.1771 	0.999983
0.1778 	0.999969
0.1785 	0.999968
0.1792 	0.999958
0.1799 	0.999942
0.1806 	0.999944
0.1813 	0.999858
0.182 	0.998578
0.1827 	0.997299
0.1834 	0.996971
0.1841 	0.996051
0.1848 	0.994489
0.1855 	0.993787
0.1862 	0.993428
0.1869 	0.976031
0.1876 	0.957323
0.1883 	0.947419
0.189 	0.933066
0.1897 	0.906913
0.1904 	0.885026
0.1911 	0.866337
0.1918 	0.816682
0.1925 	0.758581
0.1932 	0.709834
0.1939 	0.657342
0.1946 	0.573882
0.1953 	0.489869
0.196 	0.405121
0.1967 	0.34213
0.1974 	0.291227
0.1981 	0.235226
0.1988 	0.177015
0.1995 	0.150236
0.2002 	0.120854
0.2009 	0.0849675
0.2016 	0.0617243
0.2023 	0.0511247
0.203 	0.0347778
0.2037 	0.00916044
0.2044 	0.00702553
0.2051 	0.00647059
0.2058 	0.00455616
0.2065 	0.00319429
0.2072 	0.00282707
0.2079 	0.00217051
0.2086 	0.000604173
0.2093 	0.000253564
0.21 	0.000234533
0.2107 	0.000168804
0.2114 	0.000114123
0.2121 	9.9947e-05
0.2128 	8.19642e-05
0.2135 	2.96813e-05
0.2142 	1.05413e-05
0.2149 	9.81474e-06
0.2156 	7.36063e-06
0.2163 	4.7737e-06
0.217 	4.20309e-06
0.2177 	3.63248e-06
0.2184 	1.5052e-06
0.2191 	3.96341e-07
0.2198 	3.73289e-07
0.2205 	2.92226e-07
0.2212 	1.87958e-07
0.2219 	1.61367e-07
0.2226 	1.40752e-07
0.2233 	6.80904e-08
0.224 	1.36612e-08
0.2247 	1.30132e-08
0.2254 	1.06602e-08
0.2261 	7.02833e-09
0.2268 	5.7119e-09
0.2275 	5.02697e-09
0.2282 	2.8011e-09
0.2289 	4.67529e-10
0.2296 	4.49496e-10
0.2303 	3.86974e-10
0.231 	2.65134e-10
0.2317 	2.07072e-10
0.2324 	1.84443e-10
0.2331 	1.20273e-10
0.2338 	2.70077e-11
0.2345 	2.58679e-11
0.2352 	2.3654e-11
0.2359 	1.87549e-11
0.2366 	1.56673e-11
0.2373 	1.43912e-11
0.238 	1.20165e-11
0.2387 	7.94615e-12
0.2394 	7.23937e-12
0.2401 	6.75129e-12
0.2408 	6.0228e-12
0.2415 	5.41581e-12
0.2422 	5.0275e-12
0.2429 	4.58394e-12
0.2436 	3.97623e-12
0.2443 	3.63505e-12
0.245 	3.36657e-12
0.2457 	3.01367e-12
0.2464 	2.69026e-12
0.2471 	2.47499e-12
0.2478 	2.25246e-12
0.2485 	1.97148e-12
0.2492 	1.7784e-12
0.2499 	1.63416e-12
0.2506 	1.45459e-12
0.2513 	1.27465e-12
0.252 	1.16645e-12
0.2527 	1.05825e-12
0.2534 	9.18578e-13
0.2541 	8.1625e-13
0.2548 	7.52268e-13
0.2555 	6.72615e-13
0.2562 	5.86694e-13
0.2569 	5.35122e-13
0.2576 	4.86193e-13
0.2583 	4.24636e-13
0.259 	3.73555e-13
0.2597 	3.46059e-13
0.2604 	3.11844e-13
0.2611 	2.7259e-13
0.2618 	2.46723e-13
0.2625 	2.24507e-13
0.2632 	1.97391e-13
0.2639 	1.71657e-13
0.2646 	1.59183e-13
0.2653 	1.44044e-13
0.266 	1.25352e-13
0.2667 	1.12037e-13
0.2674 	1.01709e-13
0.2681 	8.93699e-14
0.2688 	7.59452e-14
0.2695 	7.02102e-14
0.2702 	6.35914e-14
0.2709 	5.47631e-14
0.2716 	4.80221e-14
0.2723 	4.33684e-14
0.273 	3.79294e-14
0.2737 	3.13321e-14
0.2744 	2.85738e-14
0.2751 	2.59125e-14
0.2758 	2.20613e-14
0.2765 	1.88969e-14
0.2772 	1.69689e-14
0.2779 	1.47974e-14
0.2786 	1.19425e-14
0.2793 	1.05849e-14
0.28 	9.63568e-15
0.2807 	8.13058e-15
0.2814 	6.79335e-15
0.2821 	6.07167e-15
0.2828 	5.3033e-15
0.2835 	4.19718e-15
0.2842 	3.59022e-15
0.2849 	3.26059e-15
0.2856 	2.75878e-15
0.2863 	2.24858e-15
0.287 	2.00249e-15
0.2877 	1.7564e-15
0.2884 	1.37218e-15
0.2891 	1.12614e-15
0.2898 	1.02106e-15
0.2905 	8.68578e-16
0.2912 	6.97125e-16
0.2919 	6.12941e-16
0.2926 	5.35472e-16
0.2933 	4.18739e-16
0.294 	3.27741e-16
0.2947 	2.96634e-16
0.2954 	2.54038e-16
0.2961 	2.02824e-16
0.2968 	1.74062e-16
0.2975 	1.51423e-16
0.2982 	1.18863e-16
0.2989 	8.80717e-17
0.2996 	7.95353e-17
0.3003 	6.86224e-17
0.301 	5.45409e-17
0.3017 	4.55801e-17
0.3024 	3.94643e-17
0.3031 	3.11624e-17
0.3038 	2.16811e-17
0.3045 	1.95309e-17
0.3052 	1.69862e-17
0.3059 	1.34551e-17
0.3066 	1.0932e-17
0.3073 	9.41686e-18
0.308 	7.49689e-18
0.3087 	5.0064e-18
0.3094 	4.37088e-18
0.3101 	3.83381e-18
0.3108 	3.03128e-18
0.3115 	2.39301e-18
0.3122 	2.05044e-18
0.3129 	1.64884e-18
0.3136 	1.09065e-18
0.3143 	8.90474e-19
0.315 	7.87943e-19
0.3157 	6.22745e-19
0.3164 	4.77802e-19
0.3171 	4.07131e-19
0.3178 	3.30856e-19
0.3185 	2.1788e-19
0.3192 	1.65075e-19
0.3199 	1.45698e-19
0.3206 	1.16515e-19
0.3213 	8.69479e-20
0.322 	7.36428e-20
0.3227 	6.03377e-20
0.3234 	3.97511e-20
0.3241 	2.77643e-20
0.3248 	2.44426e-20
0.3255 	1.97806e-20
0.3262 	1.45825e-20
0.3269 	1.20954e-20
0.3276 	9.81696e-21
0.3283 	6.58436e-21
0.329 	4.21427e-21
0.3297 	3.70019e-21
0.3304 	3.0293e-21
0.3311 	2.24079e-21
0.3318 	1.79471e-21
0.3325 	1.44202e-21
0.3332 	9.83569e-22
0.3339 	5.7387e-22
0.3346 	5.02486e-22
0.3353 	4.15895e-22
0.336 	3.09027e-22
0.3367 	2.3934e-22
0.3374 	1.90309e-22
0.3381 	1.31688e-22
0.3388 	6.98239e-23
0.3395 	6.09614e-23
0.3402 	5.09546e-23
0.3409 	3.80867e-23
0.3416 	2.86063e-23
0.3423 	2.25134e-23
0.343 	1.57511e-23
0.3437 	8.08638e-24
0.3444 	6.62204e-24
0.3451 	5.57924e-24
0.3458 	4.20365e-24
0.3465 	3.07734e-24
0.3472 	2.39972e-24
0.3479 	1.69113e-24
0.3486 	9.04634e-25
0.3493 	6.57849e-25
0.35 	5.58264e-25
0.3507 	4.25648e-25
0.3514 	3.06657e-25
0.3521 	2.3763e-25
0.3528 	1.68188e-25
0.3535 	9.62646e-26
0.3542 	6.45142e-26
0.3549 	5.50826e-26
0.3556 	4.31662e-26
0.3563 	3.12153e-26
0.357 	2.41985e-26
0.3577 	1.71831e-26
0.3584 	1.0986e-26
0.3591 	7.39841e-27
0.3598 	6.42036e-27
0.3605 	5.20305e-27
0.3612 	3.89005e-27
0.3619 	3.01293e-27
0.3626 	2.16934e-27
0.3633 	1.53612e-27
0.364 	1.10214e-27
0.3647 	9.65332e-28
0.3654 	7.99938e-28
0.3661 	6.13101e-28
0.3668 	4.70403e-28
0.3675 	3.39743e-28
0.3682 	2.46365e-28
0.3689 	1.79477e-28
0.3696 	1.56296e-28
0.3703 	1.29869e-28
0.371 	9.91169e-29
0.3717 	7.42796e-29
0.3724 	5.27286e-29
0.3731 	3.64998e-29
0.3738 	2.48153e-29
0.3745 	2.16046e-29
0.3752 	1.80589e-29
0.3759 	1.36756e-29
0.3766 	9.97893e-30
0.3773 	6.96889e-30
0.378 	4.52963e-30
0.3787 	2.82825e-30
0.3794 	2.38926e-30
0.3801 	2.02582e-30
0.3808 	1.533e-30
0.3815 	1.09543e-30
0.3822 	7.57319e-31
0.3829 	4.64964e-31
0.3836 	2.82113e-31
0.3843 	2.19416e-31
0.385 	1.8949e-31
0.3857 	1.43858e-31
0.3864 	1.01219e-31
0.3871 	6.95554e-32
0.3878 	4.02899e-32
0.3885 	2.4274e-32
0.3892 	1.71313e-32
0.3899 	1.49184e-32
0.3906 	1.15194e-32
0.3913 	7.99895e-33
0.392 	5.47054e-33
0.3927 	2.95793e-33
0.3934 	1.76886e-33
0.3941 	1.10773e-33
0.3948 	9.74581e-34
0.3955 	7.67855e-34
0.3962 	5.317e-34
0.3969 	3.58252e-34
0.3976 	1.89628e-34
0.3983 	1.04521e-34
0.399 	5.5686e-35
0.3997 	4.97404e-35
0.4004 	4.02475e-35
0.4011 	2.80941e-35
0.4018 	1.85062e-35
0.4025 	9.61797e-36
0.4032 	4.73321e-36
0.4039 	2.02801e-36
0.4046 	1.85284e-36
0.4053 	1.55616e-36
0.406 	1.09748e-36
0.4067 	7.10422e-37
0.4074 	3.63153e-37
0.4081 	1.53915e-37
0.4088 	4.9493e-38
0.4095 	4.67594e-38
0.4102 	4.14214e-38
0.4109 	2.95722e-38
0.4116 	1.89529e-38
0.4123 	9.56356e-39
0.413 	3.28705e-39
0.4137 	8.80741e-40
0.4144 	7.07385e-40
0.4151 	6.79258e-40
0.4158 	4.91829e-40
0.4165 	3.15115e-40
0.4172 	1.57689e-40
0.4179 	3.94754e-41
0.4186 	1.09426e-41
0.4193 	5.18694e-42
0.42 	5.64346e-42
0.4207 	4.14909e-42
0.4214 	2.68802e-42
0.4221 	1.34905e-42
0.4228 	2.04671e-43
0.4235 	6.20642e-44
0.4242 	1.28558e-44
0.4249 	1.55368e-44
0.4256 	1.23217e-44
0.4263 	8.14102e-45
0.427 	4.18091e-45
0.4277 	3.00082e-46
0.4284 	1.03803e-46
0.4291 	6.72086e-48
0.4298 	8.83768e-48
0.4305 	7.66635e-48
0.4312 	5.17975e-48
0.4319 	2.76794e-48
0.4326 	3.61895e-49
0.4333 	3.07064e-50
0.434 	7.14305e-52
0.4347 	9.75026e-52
0.4354 	9.23064e-52
0.4361 	6.36588e-52
0.4368 	3.56425e-52
0.4375 	7.79836e-53
0.4382 	2.58951e-54
0.4389 	4.22013e-56
0.4396 	5.88537e-56
0.4403 	6.06412e-56
0.441 	4.26089e-56
0.4417 	2.48923e-56
0.4424 	7.35114e-57
0.4431 	1.63914e-58
0.4438 	2.27713e-60
0.4445 	3.2207e-60
0.4452 	3.60115e-60
0.4459 	2.57378e-60
0.4466 	1.56065e-60
0.4473 	5.61733e-61
0.448 	1.18898e-62
0.4487 	9.887e-64
0.4494 	2.51763e-64
0.4501 	2.79295e-64
0.4508 	2.02156e-64
0.4515 	1.27882e-64
0.4522 	5.87632e-65
0.4529 	9.04931e-66
0.4536 	1.95974e-66
0.4543 	3.74799e-67
0.455 	2.91168e-67
0.4557 	2.10608e-67
0.4564 	1.37661e-67
0.4571 	9.2627e-68
0.4578 	4.92176e-68
0.4585 	1.36779e-68
0.4592 	8.46676e-70
0.4599 	6.31505e-70
0.4606 	4.58308e-70
0.4613 	2.96945e-70
0.462 	1.98466e-70
0.4627 	1.00915e-70
0.4634 	3.39934e-71
0.4641 	4.76629e-73
0.4648 	3.64869e-73
0.4655 	2.73846e-73
0.4662 	1.91118e-73
0.4669 	1.22672e-73
0.4676 	5.53251e-74
0.4683 	2.03392e-74
0.469 	-5.10457e-75
0.4697 	-2.07458e-74
0.4704 	-1.85266e-74
0.4711 	-2.91229e-75
0.4718 	4.54011e-76
0.4725 	4.79849e-76
0.4732 	4.83396e-76
0.4739 	-2.52222e-75
0.4746 	-1.65338e-74
0.4753 	-1.85341e-74
0.476 	-4.51922e-75
0.4767 	5.02183e-76
0.4774 	5.27128e-76
0.4781 	5.37779e-76
0.4788 	-3.25987e-76
0.4795 	-1.24361e-74
0.4802 	-1.76252e-74
0.4809 	-5.51189e-75
0.4816 	5.47489e-76
0.4823 	5.52825e-76
0.483 	5.56265e-76
0.4837 	5.57501e-76
0.4844 	-9.0042e-75
0.4851 	-1.63591e-74
0.4858 	-6.05893e-75
0.4865 	5.47354e-76
0.4872 	5.04617e-76
0.4879 	4.759e-76
0.4886 	4.76917e-76
0.4893 	-6.32777e-75
0.49 	-1.49886e-74
0.4907 	-6.32614e-75
0.4914 	4.59173e-76
0.4921 	3.61475e-76
0.4928 	2.81358e-76
0.4935 	2.82126e-76
0.4942 	-4.37651e-75
0.4949 	-1.16238e-74
0.4956 	-6.4463e-75
0.4963 	2.77842e-76
0.497 	1.88579e-76
0.4977 	1.02615e-76
0.4984 	1.03312e-76
0.4991 	-2.89957e-75
0.4998 	-8.90608e-75
0.5005 	-6.33088e-75
0.5012 	-3.2301e-76
0.5019 	6.33907e-77
0.5026 	1.73482e-77
0.5033 	1.31537e-77
0.504 	-1.73859e-75
0.5047 	-6.64482e-75
0.5054 	-5.94302e-75
0.5061 	-1.03519e-75
0.5068 	2.49076e-78
0.5075 	-1.53384e-77
0.5082 	-1.9216e-77
0.5089 	-8.67187e-76
0.5096 	-4.82703e-75
0.5103 	-5.39206e-75
0.511 	-1.43068e-75
0.5117 	-1.9229e-77
0.5124 	-2.44331e-77
0.5131 	-2.60722e-77
0.5138 	-2.52022e-76
0.5145 	-3.42369e-75
0.5152 	-4.78258e-75
0.5159 	-1.60953e-75
0.5166 	-2.33303e-77
0.5173 	-2.39846e-77
0.518 	-2.40751e-77
0.5187 	-2.35271e-77
0.5194 	-2.37034e-75
0.5201 	-4.17545e-75
0.5208 	-1.64687e-75
0.5215 	-2.12368e-77
0.5222 	-2.09561e-77
0.5229 	-2.06138e-77
0.5236 	-2.01446e-77
0.5243 	-1.59208e-75
0.525 	-3.59287e-75
0.5257 	-1.59105e-75
0.5264 	-1.83114e-77
0.5271 	-1.88986e-77
0.5278 	-1.93029e-77
0.5285 	-1.89009e-77
0.5292 	-1.02662e-75
0.5299 	-2.59441e-75
0.5306 	-1.47378e-75
0.5313 	-1.71872e-77
0.532 	-1.79996e-77
0.5327 	-1.87623e-77
0.5334 	-1.84124e-77
0.5341 	-6.24153e-76
0.5348 	-1.83599e-75
0.5355 	-1.31604e-75
0.5362 	-1.03372e-76
0.5369 	-1.67501e-77
0.5376 	-1.67503e-77
0.5383 	-1.64721e-77
0.539 	-3.4479e-76
0.5397 	-1.26465e-75
0.5404 	-1.1328e-75
0.5411 	-2.12185e-76
0.5418 	-1.47124e-77
0.5425 	-1.44634e-77
0.5432 	-1.41962e-77
0.5439 	-1.60354e-76
0.5446 	-8.43435e-76
0.5453 	-9.40719e-76
0.546 	-2.5694e-76
0.5467 	-1.25085e-77
0.5474 	-1.21612e-77
0.5481 	-1.18805e-77
0.5488 	-4.69951e-77
0.5495 	-5.41729e-76
0.5502 	-7.53578e-76
0.5509 	-2.58214e-76
0.5516 	-1.03294e-77
0.5523 	-9.92654e-78
0.553 	-9.61692e-78
0.5537 	-9.41064e-78
0.5544 	-3.33239e-76
0.5551 	-5.8227e-76
0.5558 	-2.32962e-76
0.5565 	-8.25809e-78
0.5572 	-7.8416e-78
0.5579 	-7.50597e-78
0.5586 	-7.33289e-78
0.5593 	-1.95121e-76
0.56 	-4.34171e-76
0.5607 	-1.94653e-76
0.5614 	-6.37539e-78
0.5621 	-5.98198e-78
0.5628 	-5.63667e-78
0.5635 	-5.49641e-78
0.5642 	-1.07871e-76
0.5649 	-2.67198e-76
0.5656 	-1.53068e-76
0.5663 	-4.74497e-78
0.567 	-4.40156e-78
0.5677 	-4.06933e-78
0.5684 	-3.96012e-78
0.5691 	-5.55723e-77
0.5698 	-1.58906e-76
0.5705 	-1.14411e-76
0.5712 	-1.07848e-77
0.5719 	-3.12353e-78
0.5726 	-2.84446e-78
0.5733 	-2.74431e-78
0.574 	-2.60103e-77
0.5747 	-9.13022e-77
0.5754 	-8.18516e-77
0.5761 	-1.63441e-77
0.5768 	-2.13969e-78
0.5775 	-1.92713e-78
0.5782 	-1.83237e-78
0.5789 	-1.04106e-77
0.5796 	-5.06562e-77
0.5803 	-5.63405e-77
0.581 	-1.59432e-77
0.5817 	-1.41731e-78
0.5824 	-1.26446e-78
0.5831 	-1.18174e-78
0.5838 	-2.87521e-78
0.5845 	-2.71033e-77
0.5852 	-3.74576e-77
0.5859 	-1.31272e-77
0.5866 	-9.09689e-79
0.5873 	-8.05211e-79
0.588 	-7.38146e-79
0.5887 	-7.11834e-79
0.5894 	-1.395e-77
0.5901 	-2.41252e-77
0.5908 	-9.80036e-78
0.5915 	-5.67117e-79
0.5922 	-4.98807e-79
0.5929 	-4.47843e-79
0.5936 	-4.3111e-79
0.5943 	-6.87847e-78
0.595 	-1.50888e-77
0.5957 	-6.83699e-78
0.5964 	-3.44217e-79
0.5971 	-3.01232e-79
0.5978 	-2.64585e-79
0.5985 	-2.54285e-79
0.5992 	-3.22621e-78
0.5999 	-7.85493e-78
0.6006 	-4.52715e-78
0.6013 	-2.03826e-79
0.602 	-1.77653e-79
0.6027 	-1.52512e-79
0.6034 	-1.46356e-79
0.6041 	-1.42121e-78
0.6048 	-3.97707e-78
0.6055 	-2.87113e-78
0.6062 	-3.00451e-79
0.6069 	-1.02458e-79
0.6076 	-8.69832e-80
0.6083 	-8.23203e-80
0.609 	-5.73815e-79
0.6097 	-1.95645e-78
0.6104 	-1.75407e-78
0.6111 	-3.62932e-79
0.6118 	-5.78313e-80
0.6125 	-4.89254e-80
0.6132 	-4.52882e-80
0.6139 	-2.00752e-79
0.6146 	-9.33709e-79
0.6153 	-1.03638e-78
0.616 	-2.98652e-79
0.6167 	-3.19645e-80
0.6174 	-2.6965e-80
0.6181 	-2.43823e-80
0.6188 	-5.05317e-80
0.6195 	-4.31291e-79
0.6202 	-5.93728e-79
0.6209 	-2.10359e-79
0.6216 	-1.73031e-80
0.6223 	-1.45606e-80
0.623 	-1.28447e-80
0.6237 	-1.22334e-80
0.6244 	-1.92066e-79
0.6251 	-3.30232e-79
0.6258 	-1.35122e-79
0.6265 	-9.16873e-81
0.6272 	-7.69819e-81
0.6279 	-6.61645e-81
0.6286 	-6.29221e-81
0.6293 	-8.19687e-80
0.63 	-1.78373e-79
0.6307 	-8.12367e-80
0.6314 	-4.75009e-81
0.6321 	-3.97932e-81
0.6328 	-3.32703e-81
0.6335 	-3.15875e-81
0.6342 	-3.32031e-80
0.6349 	-8.00323e-80
0.6356 	-4.62613e-80
0.6363 	-2.40056e-81
0.637 	-2.00605e-81
0.6377 	-1.62826e-81
0.6384 	-1.54286e-81
0.6391 	-1.25615e-80
0.6398 	-3.46842e-80
0.6405 	-2.50689e-80
0.6412 	-2.75855e-81
0.6419 	-9.82296e-82
0.6426 	-7.85608e-82
0.6433 	-7.2964e-82
0.644 	-4.31225e-81
0.6447 	-1.44197e-80
0.6454 	-1.29235e-80
0.6461 	-2.72465e-81
0.6468 	-4.64462e-82
0.6475 	-3.69389e-82
0.6482 	-3.31753e-82
0.6489 	-1.26525e-81
0.6496 	-5.69626e-81
0.6503 	-6.31079e-81
0.651 	-1.83669e-81
0.6517 	-2.10355e-82
0.6524 	-1.66128e-82
0.6531 	-1.43666e-82
0.6538 	-2.66613e-82
0.6545 	-2.111e-81
0.6552 	-2.89589e-81
0.6559 	-1.03202e-81
0.6566 	-9.02943e-83
0.6573 	-7.07032e-83
0.658 	-5.85494e-83
0.6587 	-5.4339e-83
0.6594 	-7.21917e-82
0.6601 	-1.23448e-81
0.6608 	-5.06894e-82
0.6615 	-3.625e-83
0.6622 	-2.80999e-83
0.6629 	-2.21261e-83
0.6636 	-2.03607e-83
0.6643 	-2.23067e-82
0.665 	-4.81538e-82
0.6657 	-2.19751e-82
0.6664 	-1.33904e-83
0.6671 	-1.02611e-83
0.6678 	-7.61594e-84
0.6685 	-6.92983e-84
0.6692 	-6.06059e-83
0.6699 	-1.44483e-82
0.6706 	-8.35405e-83
0.6713 	-4.46065e-84
0.672 	-3.37502e-84
0.6727 	-2.33614e-84
0.6734 	-2.09426e-84
0.6741 	-1.39576e-83
0.6748 	-3.79261e-83
0.6755 	-2.73778e-83
0.6762 	-3.02282e-84
0.6769 	-9.7532e-85
0.6776 	-6.4379e-85
0.6783 	-5.46088e-85
0.679 	-2.58268e-84
0.6797 	-8.42071e-84
0.6804 	-7.52584e-84
0.6811 	-1.5813e-84
0.6818 	-2.39735e-85
0.6825 	-1.53538e-85
0.6832 	-1.18284e-85
0.6839 	-3.50885e-85
0.6846 	-1.50978e-84
0.6853 	-1.66504e-84
0.686 	-4.82113e-85
0.6867 	-4.79177e-86
0.6874 	-2.96849e-86
0.6881 	-2.01631e-86
0.6888 	-2.86417e-86
0.6895 	-2.03777e-85
0.6902 	-2.77652e-85
0.6909 	-9.83752e-86
0.6916 	-7.27182e-87
0.6923 	-4.34206e-87
0.693 	-2.48423e-87
0.6937 	-1.76812e-87
0.6944 	-1.82948e-86
0.6951 	-3.0978e-86
0.6958 	-1.26422e-86
0.6965 	-7.42655e-88
0.6972 	-4.28377e-88
0.6979 	-1.94445e-88
0.6986 	-1.15503e-88
0.6993 	-8.02417e-89
0.7 	-5.68932e-89
