0 	1
0.0007 	1
0.0014 	1
0.0021 	1
0.0028 	1
0.0035 	1
0.0042 	1
0.0049 	1
0.0056 	1
0.0063 	1
0.007 	1
0.0077 	1
0.0084 	1
0.0091 	1
0.0098 	1
0.0105 	1
0.0112 	1
0.0119 	1
0.0126 	1
0.0133 	1
0.014 	1
0.0147 	1
0.0154 	1
0.0161 	1
0.0168 	1
0.0175 	1
0.0182 	1
0.0189 	1
0.0196 	1
0.0203 	1
0.021 	1
0.0217 	1
0.0224 	1
0.0231 	1
0.0238 	1
0.0245 	1
0.0252 	1
0.0259 	1
0.0266 	1
0.0273 	1
0.028 	1
0.0287 	1
0.0294 	1
0.0301 	1
0.0308 	1
0.0315 	1
0.0322 	1
0.0329 	1
0.0336 	1
0.0343 	1
0.035 	1
0.0357 	1
0.0364 	1
0.0371 	1
0.0378 	1
0.0385 	1
0.0392 	1
0.0399 	1
0.0406 	1
0.0413 	1
0.042 	1
0.0427 	1
0.0434 	1
0.0441 	1
0.0448 	1
0.0455 	1
0.0462 	1
0.0469 	1
0.0476 	1
0.0483 	1
0.049 	1
0.0497 	1
0.0504 	1
0.0511 	1
0.0518 	1
0.0525 	1
0.0532 	1
0.0539 	1
0.0546 	1
0.0553 	1
0.056 	1
0.0567 	1
0.0574 	1
0.0581 	1
0.0588 	1
0.0595 	1
0.0602 	1
0.0609 	1
0.0616 	1
0.0623 	1
0.063 	1
0.0637 	1
0.0644 	1
0.0651 	1
0.0658 	1
0.0665 	1
0.0672 	1
0.0679 	1
0.0686 	1
0.0693 	1
0.07 	1
0.0707 	1
0.0714 	1
0.0721 	1
0.0728 	1
0.0735 	1
0.0742 	1
0.0749 	1
0.0756 	1
0.0763 	1
0.077 	1
0.0777 	1
0.0784 	1
0.0791 	1
0.0798 	1
0.0805 	1
0.0812 	1
0.0819 	1
0.0826 	1
0.0833 	1
0.084 	1
0.0847 	1
0.0854 	1
0.0861 	1
0.0868 	1
0.0875 	1
0.0882 	1
0.0889 	1
0.0896 	1
0.0903 	1
0.091 	1
0.0917 	1
0.0924 	1
0.0931 	1
0.0938 	1
0.0945 	1
0.0952 	1
0.0959 	1
0.0966 	1
0.0973 	1
0.098 	1
0.0987 	1
0.0994 	1
0.1001 	1
0.1008 	1
0.1015 	1
0.1022 	1
0.1029 	1
0.1036 	1
0.1043 	1
0.105 	1
0.1057 	1
0.1064 	1
0.1071 	1
0.1078 	1
0.1085 	1
0.1092 	1
0.1099 	1
0.1106 	1
0.1113 	1
0.112 	1
0.1127 	1
0.1134 	1
0.1141 	1
0.1148 	1
0.1155 	1
0.1162 	1
0.1169 	1
0.1176 	1
0.1183 	1
0.119 	1
0.1197 	1
0.1204 	1
0.1211 	1
0.1218 	1
0.1225 	1
0.1232 	1
0.1239 	1
0.1246 	1
0.1253 	1
0.126 	1
0.1267 	1
0.1274 	1
0.1281 	1
0.1288 	1
0.1295 	1
0.1302 	1
0.1309 	1
0.1316 	1
0.1323 	1
0.133 	1
0.1337 	1
0.1344 	1
0.1351 	1
0.1358 	1
0.1365 	1
0.1372 	1
0.1379 	1
0.1386 	1
0.1393 	1
0.14 	1
0.1407 	1
0.1414 	1
0.1421 	1
0.1428 	1
0.1435 	1
0.1442 	1
0.1449 	1
0.1456 	1
0.1463 	1
0.147 	1
0.1477 	1
0.1484 	1
0.1491 	1
0.1498 	1
0.1505 	1
0.1512 	1
0.1519 	1
0.1526 	1
0.1533 	1
0.154 	1
0.1547 	1
0.1554 	1
0.1561 	1
0.1568 	1
0.1575 	1
0.1582 	1
0.1589 	1
0.1596 	1
0.1603 	1
0.161 	1
0.1617 	1
0.1624 	1
0.1631 	1
0.1638 	1
0.1645 	1
0.1652 	1
0.1659 	1
0.1666 	1
0.1673 	1
0.168 	1
0.1687 	1
0.1694 	1
0.1701 	1
0.1708 	1
0.1715 	1
0.1722 	1
0.1729 	1
0.1736 	1
0.1743 	1
0.175 	1
0.1757 	1
0.1764 	1
0.1771 	1
0.1778 	1
0.1785 	1
0.1792 	1
0.1799 	1
0.1806 	1
0.1813 	1
0.182 	1
0.1827 	1
0.1834 	1
0.1841 	1
0.1848 	1
0.1855 	1
0.1862 	1
0.1869 	1
0.1876 	1
0.1883 	1
0.189 	1
0.1897 	1
0.1904 	1
0.1911 	1
0.1918 	1
0.1925 	1
0.1932 	1
0.1939 	1
0.1946 	1
0.1953 	1
0.196 	1
0.1967 	1
0.1974 	1
0.1981 	1
0.1988 	1
0.1995 	1
0.2002 	1
0.2009 	1
0.2016 	1
0.2023 	1
0.203 	1
0.2037 	1
0.2044 	1
0.2051 	1
0.2058 	1
0.2065 	0.999996
0.2072 	0.999987
0.2079 	0.999977
0.2086 	0.99995
0.2093 	0.999917
0.21 	0.999881
0.2107 	0.999859
0.2114 	0.999643
0.2121 	0.998712
0.2128 	0.997781
0.2135 	0.996045
0.2142 	0.993632
0.2149 	0.990893
0.2156 	0.988589
0.2163 	0.985391
0.217 	0.969639
0.2177 	0.953887
0.2184 	0.932722
0.2191 	0.903029
0.2198 	0.866575
0.2205 	0.831489
0.2212 	0.796951
0.2219 	0.741536
0.2226 	0.684514
0.2233 	0.624803
0.224 	0.555349
0.2247 	0.471439
0.2254 	0.38673
0.2261 	0.301423
0.2268 	0.240888
0.2275 	0.187108
0.2282 	0.136595
0.2289 	0.0965513
0.2296 	0.0812831
0.2303 	0.064739
0.231 	0.0464939
0.2317 	0.0322468
0.2324 	0.020221
0.2331 	0.00991307
0.2338 	0.00362156
0.2345 	0.00310885
0.2352 	0.00255011
0.2359 	0.00187631
0.2366 	0.00131041
0.2373 	0.000852435
0.238 	0.000433767
0.2387 	0.000192225
0.2394 	0.00015127
0.2401 	0.000124856
0.2408 	9.31092e-05
0.2415 	6.51297e-05
0.2422 	4.39308e-05
0.2429 	2.30927e-05
0.2436 	1.12627e-05
0.2443 	7.72673e-06
0.245 	6.45273e-06
0.2457 	4.86815e-06
0.2464 	3.39654e-06
0.2471 	2.33918e-06
0.2478 	1.28183e-06
0.2485 	6.42254e-07
0.2492 	3.90713e-07
0.2499 	3.27614e-07
0.2506 	2.51202e-07
0.2513 	1.74431e-07
0.252 	1.21836e-07
0.2527 	6.924e-08
0.2534 	3.44502e-08
0.2541 	1.85507e-08
0.2548 	1.56761e-08
0.2555 	1.22238e-08
0.2562 	8.54034e-09
0.2569 	5.9639e-09
0.2576 	3.47263e-09
0.2583 	1.70033e-09
0.259 	8.1527e-10
0.2597 	6.966e-10
0.2604 	5.55604e-10
0.2611 	3.97864e-10
0.2618 	2.78721e-10
0.2625 	1.70106e-10
0.2632 	8.6666e-11
0.2639 	4.25971e-11
0.2646 	3.70862e-11
0.2653 	3.08102e-11
0.266 	2.35142e-11
0.2667 	1.75905e-11
0.2674 	1.24291e-11
0.2681 	8.04116e-12
0.2688 	5.42789e-12
0.2695 	4.79187e-12
0.2702 	4.12139e-12
0.2709 	3.3648e-12
0.2716 	2.71607e-12
0.2723 	2.17522e-12
0.273 	1.66822e-12
0.2737 	1.31578e-12
0.2744 	1.16298e-12
0.2751 	1.02334e-12
0.2758 	8.70545e-13
0.2765 	7.32328e-13
0.2772 	6.2035e-13
0.2779 	5.09353e-13
0.2786 	4.24266e-13
0.2793 	3.71117e-13
0.28 	3.26677e-13
0.2807 	2.79958e-13
0.2814 	2.35951e-13
0.2821 	2.01892e-13
0.2828 	1.67832e-13
0.2835 	1.38841e-13
0.2842 	1.18563e-13
0.2849 	1.02788e-13
0.2856 	8.64579e-14
0.2863 	7.03925e-14
0.287 	5.8966e-14
0.2877 	4.75394e-14
0.2884 	3.76194e-14
0.2891 	3.06903e-14
0.2898 	2.62504e-14
0.2905 	2.16395e-14
0.2912 	1.69601e-14
0.2919 	1.37296e-14
0.2926 	1.06105e-14
0.2933 	7.89436e-15
0.294 	5.99446e-15
0.2947 	5.09427e-15
0.2954 	4.1611e-15
0.2961 	3.20321e-15
0.2968 	2.50952e-15
0.2975 	1.88789e-15
0.2982 	1.33369e-15
0.2989 	9.29259e-16
0.2996 	7.8818e-16
0.3003 	6.43252e-16
0.301 	4.93194e-16
0.3017 	3.78163e-16
0.3024 	2.82593e-16
0.3031 	1.9414e-16
0.3038 	1.24643e-16
0.3045 	1.05601e-16
0.3052 	8.62419e-17
0.3059 	6.60871e-17
0.3066 	4.97084e-17
0.3073 	3.71057e-17
0.308 	2.5e-17
0.3087 	1.51959e-17
0.3094 	1.23899e-17
0.3101 	1.01043e-17
0.3108 	7.71131e-18
0.3115 	5.65026e-18
0.3122 	4.18674e-18
0.3129 	2.73415e-18
0.3136 	1.5883e-18
0.3143 	1.17168e-18
0.315 	9.53918e-19
0.3157 	7.25004e-19
0.3164 	5.15903e-19
0.3171 	3.79452e-19
0.3178 	2.43e-19
0.3185 	1.31917e-19
0.3192 	8.331e-20
0.3199 	6.76908e-20
0.3206 	5.15091e-20
0.3213 	3.57236e-20
0.322 	2.63082e-20
0.3227 	1.68928e-20
0.3234 	8.75734e-21
0.3241 	4.48189e-21
0.3248 	3.63535e-21
0.3255 	2.77124e-21
0.3262 	1.9001e-21
0.3269 	1.38754e-21
0.3276 	9.02573e-22
0.3283 	4.57061e-22
0.329 	1.75325e-22
0.3297 	1.41992e-22
0.3304 	1.08373e-22
0.3311 	7.45405e-23
0.3318 	5.32597e-23
0.3325 	3.54025e-23
0.3332 	1.80016e-23
0.3339 	4.56195e-24
0.3346 	3.69524e-24
0.3353 	2.82538e-24
0.336 	1.95131e-24
0.3367 	1.3649e-24
0.3374 	9.38294e-25
0.3381 	5.00455e-25
0.3388 	7.06421e-26
0.3395 	5.74841e-26
0.3402 	4.42135e-26
0.3409 	3.06614e-26
0.3416 	2.09659e-26
0.3423 	1.51272e-26
0.343 	8.93799e-27
0.3437 	1.10093e-27
0.3444 	4.54232e-28
0.3451 	3.584e-28
0.3458 	2.49451e-28
0.3465 	1.65717e-28
0.3472 	1.27371e-28
0.3479 	8.79681e-29
0.3486 	1.68325e-29
0.3493 	1.42575e-30
0.35 	1.21716e-30
0.3507 	8.49856e-31
0.3514 	5.41257e-31
0.3521 	4.47923e-31
0.3528 	3.54588e-31
0.3535 	9.95252e-32
0.3542 	1.21349e-33
0.3549 	1.19195e-33
0.3556 	8.702e-34
0.3563 	5.20986e-34
0.357 	4.6519e-34
0.3577 	4.09394e-34
0.3584 	1.58695e-34
0.3591 	1.68472e-37
0.3598 	2.00539e-37
0.3605 	1.61522e-37
0.3612 	9.40704e-38
0.3619 	8.49013e-38
0.3626 	8.02158e-38
0.3633 	4.04413e-38
0.364 	6.20196e-42
0.3647 	7.31588e-42
0.3654 	6.36418e-42
0.3661 	3.86327e-42
0.3668 	3.177e-42
0.3675 	2.98565e-42
0.3682 	1.81882e-42
0.3689 	7.96961e-46
0.3696 	9.03895e-46
0.3703 	8.32849e-46
0.371 	5.24496e-46
0.3717 	3.96816e-46
0.3724 	3.69513e-46
0.3731 	2.61698e-46
0.3738 	7.50872e-50
0.3745 	8.80738e-50
0.3752 	8.84322e-50
0.3759 	5.72201e-50
0.3766 	4.03761e-50
0.3773 	3.79005e-50
0.378 	3.08644e-50
0.3787 	2.06486e-51
0.3794 	9.25797e-54
0.3801 	9.98697e-54
0.3808 	6.63008e-54
0.3815 	4.37793e-54
0.3822 	4.11434e-54
0.3829 	3.76542e-54
0.3836 	6.65151e-55
0.3843 	9.4724e-58
0.385 	1.0973e-57
0.3857 	7.45222e-58
0.3864 	4.62738e-58
0.3871 	4.35428e-58
0.3878 	4.08117e-58
0.3885 	1.16334e-58
0.3892 	9.40394e-62
0.3899 	1.09489e-61
0.3906 	8.09677e-62
0.3913 	4.74814e-62
0.392 	4.47264e-62
0.3927 	4.19715e-62
0.3934 	1.6594e-62
0.3941 	8.97315e-66
0.3948 	1.05007e-65
0.3955 	8.42903e-66
0.3962 	4.91762e-66
0.3969 	4.4182e-66
0.3976 	4.15051e-66
0.3983 	2.09089e-66
0.399 	8.18902e-70
0.3997 	9.63745e-70
0.4004 	8.37565e-70
0.4011 	5.08117e-70
0.4018 	4.17962e-70
0.4025 	3.93072e-70
0.4032 	2.39927e-70
0.4039 	7.13694e-74
0.4046 	8.45238e-74
0.4053 	7.93678e-74
0.406 	4.9798e-74
0.4067 	3.78155e-74
0.4074 	3.5604e-74
0.4081 	2.54697e-74
0.4088 	5.94542e-78
0.4095 	7.09044e-78
0.4102 	7.18211e-78
0.4109 	4.64046e-78
0.4116 	3.27562e-78
0.4123 	3.08764e-78
0.413 	2.52818e-78
0.4137 	1.6898e-79
0.4144 	5.70844e-82
0.4151 	6.22678e-82
0.4158 	4.1305e-82
0.4165 	2.72801e-82
0.4172 	2.57438e-82
0.4179 	2.37052e-82
0.4186 	4.18132e-83
0.4193 	-5.33588e-85
0.42 	-1.18421e-84
0.4207 	-5.64742e-85
0.4214 	-7.82718e-86
0.4221 	-7.94916e-86
0.4228 	-8.07113e-86
0.4235 	-9.41873e-86
0.4242 	-2.25697e-85
0.4249 	-4.21893e-85
0.4256 	-2.62783e-85
0.4263 	-5.98038e-86
0.427 	-5.63693e-86
0.4277 	-5.29348e-86
0.4284 	-2.74671e-86
0.4291 	-1.57995e-86
0.4298 	-2.56083e-86
0.4305 	-1.93418e-86
0.4312 	-6.64533e-87
0.4319 	-5.34443e-87
0.4326 	-4.92019e-87
0.4333 	-2.71286e-87
0.434 	-6.64982e-88
0.4347 	-1.05764e-87
0.4354 	-9.2093e-88
0.4361 	-3.87188e-88
0.4368 	-2.56591e-88
0.4375 	-2.35948e-88
0.4382 	-1.50436e-88
0.4389 	-2.54838e-89
0.4396 	-4.04753e-89
0.4403 	-4.00404e-89
0.441 	-1.9037e-89
0.4417 	-1.09722e-89
0.4424 	-1.00956e-89
0.4431 	-7.32401e-90
0.4438 	-9.10296e-91
0.4445 	-1.43467e-90
0.4452 	-1.5917e-90
0.4459 	-8.30384e-91
0.4466 	-4.32536e-91
0.4473 	-3.98163e-91
0.448 	-3.23346e-91
0.4487 	-4.96312e-92
0.4494 	-4.46803e-92
0.4501 	-5.47343e-92
0.4508 	-3.07861e-92
0.4515 	-1.49675e-92
0.4522 	-1.37824e-92
0.4529 	-1.23826e-92
0.4536 	-2.88615e-93
0.4543 	-1.12425e-93
0.455 	-1.4717e-93
0.4557 	-8.92125e-94
0.4564 	-4.29584e-94
0.4571 	-3.96198e-94
0.4578 	-3.62811e-94
0.4585 	-1.2074e-94
0.4592 	-2.91944e-95
0.4599 	-3.6681e-95
0.4606 	-2.58257e-95
0.4613 	-1.28397e-95
0.462 	-1.18971e-95
0.4627 	-1.09544e-95
0.4634 	-5.04798e-96
0.4641 	-1.41981e-96
0.4648 	-1.81809e-96
0.4655 	-1.42337e-96
0.4662 	-7.11458e-97
0.4669 	-6.17007e-97
0.4676 	-5.70057e-97
0.4683 	-3.26684e-97
0.469 	-9.71015e-98
0.4697 	-1.31615e-97
0.4704 	-1.14396e-97
0.4711 	-5.83789e-98
0.4718 	-4.3799e-98
0.4725 	-4.05207e-98
0.4732 	-2.71469e-98
0.4739 	-7.92555e-99
0.4746 	-1.19167e-98
0.4753 	-1.17115e-98
0.476 	-5.91137e-99
0.4767 	-3.66061e-99
0.4774 	-3.38179e-99
0.4781 	-2.54287e-99
0.4788 	-6.4244e-100
0.4795 	-1.14218e-99
0.4802 	-1.31066e-99
0.4809 	-6.51001e-100
0.4816 	-3.08802e-100
0.4823 	-2.84076e-100
0.483 	-2.34209e-100
0.4837 	-5.88929e-101
0.4844 	-1.06232e-100
0.4851 	-1.505e-100
0.4858 	-7.35826e-101
0.4865 	-2.34273e-101
0.4872 	-2.14444e-101
0.4879 	-1.91996e-101
0.4886 	-6.21952e-102
0.4893 	-1.14198e-101
0.49 	-2.15783e-101
0.4907 	-1.04809e-101
0.4914 	-1.72681e-102
0.4921 	-1.56509e-102
0.4928 	-1.40337e-102
0.4935 	-5.69397e-103
0.4942 	-1.43161e-102
0.4949 	-3.28672e-102
0.4956 	-1.90601e-102
0.4963 	-1.22135e-103
0.497 	-1.08095e-103
0.4977 	-9.40543e-104
0.4984 	-4.59531e-104
0.4991 	-2.01499e-103
0.4998 	-5.72807e-103
0.5005 	-4.10933e-103
0.5012 	-3.57859e-104
0.5019 	-7.57519e-105
0.5026 	-6.05445e-105
0.5033 	-3.47226e-105
0.504 	-2.89581e-104
0.5047 	-1.06269e-103
0.5054 	-9.50952e-104
0.5061 	-1.7559e-104
0.5068 	-7.55602e-106
0.5075 	-5.16283e-106
0.5082 	-3.11962e-106
0.5089 	-3.61162e-105
0.5096 	-1.96026e-104
0.5103 	-2.1879e-104
0.511 	-5.86937e-105
0.5117 	-1.21813e-106
0.5124 	-7.55958e-107
0.5131 	-4.10623e-107
0.5138 	-2.63837e-106
0.5145 	-3.49026e-105
0.5152 	-4.87228e-105
0.5159 	-1.64329e-105
0.5166 	-2.41468e-107
0.5173 	-1.48746e-107
0.518 	-7.03063e-108
0.5187 	-6.41406e-108
0.5194 	-5.93338e-106
0.5201 	-1.04478e-105
0.5208 	-4.12221e-106
0.5215 	-4.91632e-108
0.5222 	-3.08708e-108
0.5229 	-1.29616e-108
0.5236 	-1.21813e-108
0.5243 	-9.56203e-107
0.525 	-2.15789e-106
0.5257 	-9.55385e-107
0.5264 	-9.80297e-109
0.5271 	-6.29696e-109
0.5278 	-2.79095e-109
0.5285 	-2.25296e-109
0.5292 	-1.44789e-107
0.5299 	-3.66581e-107
0.5306 	-2.08032e-107
0.5313 	-1.89788e-109
0.532 	-1.24599e-109
0.5327 	-5.94109e-110
0.5334 	-4.05246e-110
0.5341 	-2.02806e-108
0.5348 	-6.00533e-108
0.5355 	-4.29895e-108
0.5362 	-3.191e-109
0.5369 	-2.38762e-110
0.5376 	-1.21129e-110
0.5383 	-7.08874e-111
0.539 	-2.54532e-109
0.5397 	-9.4806e-109
0.5404 	-8.48734e-109
0.5411 	-1.54766e-109
0.5418 	-4.43395e-111
0.5425 	-2.37213e-111
0.5432 	-1.20723e-111
0.5439 	-2.63852e-110
0.5446 	-1.44121e-109
0.5453 	-1.60909e-109
0.546 	-4.31003e-110
0.5467 	-7.99176e-112
0.5474 	-4.47728e-112
0.5481 	-2.00581e-112
0.5488 	-1.58318e-111
0.5495 	-2.10795e-110
0.5502 	-2.94316e-110
0.5509 	-9.9235e-111
0.5516 	-1.40107e-112
0.5523 	-8.17319e-113
0.553 	-3.25939e-113
0.5537 	-3.08283e-113
0.5544 	-2.96246e-111
0.5551 	-5.21737e-111
0.5558 	-2.05823e-111
0.5565 	-2.39536e-113
0.5572 	-1.44778e-113
0.5579 	-5.18646e-114
0.5586 	-4.9067e-114
0.5593 	-3.98379e-112
0.56 	-8.99234e-112
0.5607 	-3.98086e-112
0.5614 	-4.00074e-114
0.5621 	-2.49397e-114
0.5628 	-9.87194e-115
0.5635 	-7.63814e-115
0.5642 	-5.07313e-113
0.5649 	-1.28482e-112
0.5656 	-7.29076e-113
0.5663 	-6.52318e-115
0.567 	-4.17777e-115
0.5677 	-1.83236e-115
0.5684 	-1.16018e-115
0.5691 	-6.00213e-114
0.5698 	-1.77807e-113
0.5705 	-1.27281e-113
0.5712 	-9.42923e-115
0.5719 	-6.79625e-116
0.5726 	-3.23293e-116
0.5733 	-1.7179e-116
0.574 	-6.37674e-115
0.5747 	-2.37675e-114
0.5754 	-2.12777e-114
0.5761 	-3.87751e-115
0.5768 	-1.0733e-116
0.5775 	-5.45746e-117
0.5782 	-2.48188e-117
0.5789 	-5.60369e-116
0.5796 	-3.06457e-115
0.5803 	-3.42174e-115
0.581 	-9.16219e-116
0.5817 	-1.64758e-117
0.5824 	-8.85981e-118
0.5831 	-3.50462e-118
0.5838 	-2.84879e-117
0.5845 	-3.80726e-116
0.5852 	-5.31634e-116
0.5859 	-1.79213e-116
0.5866 	-2.46333e-118
0.5873 	-1.38957e-118
0.588 	-4.84907e-119
0.5887 	-4.58449e-119
0.5894 	-4.55034e-117
0.5901 	-8.01511e-117
0.5908 	-3.16148e-117
0.5915 	-3.59672e-119
0.5922 	-2.11471e-119
0.5929 	-6.59278e-120
0.5936 	-6.2361e-120
0.5943 	-5.21689e-118
0.595 	-1.17781e-117
0.5957 	-5.21361e-118
0.5964 	-5.14446e-120
0.5971 	-3.13558e-120
0.5978 	-1.12669e-120
0.5985 	-8.34752e-121
0.5992 	-5.6945e-119
0.5999 	-1.44253e-118
0.6006 	-8.18534e-119
0.6013 	-7.22272e-121
0.602 	-4.54204e-121
0.6027 	-1.86137e-121
0.6034 	-1.09836e-121
0.6041 	-5.81543e-120
0.6048 	-1.72326e-119
0.6055 	-1.23356e-119
0.6062 	-9.12925e-121
0.6069 	-6.42823e-122
0.6076 	-2.91062e-122
0.6083 	-1.41887e-122
0.609 	-5.36909e-121
0.6097 	-2.00192e-120
0.6104 	-1.79224e-120
0.6111 	-3.26534e-121
0.6118 	-8.88549e-123
0.6125 	-4.3552e-123
0.6132 	-1.80144e-123
0.6139 	-4.12951e-122
0.6146 	-2.25957e-121
0.6153 	-2.523e-121
0.616 	-6.75526e-122
0.6167 	-1.20156e-123
0.6174 	-6.28272e-124
0.6181 	-2.24967e-124
0.6188 	-1.84856e-123
0.6195 	-2.47363e-122
0.6202 	-3.45423e-122
0.6209 	-1.16441e-122
0.6216 	-1.59188e-124
0.6223 	-8.78156e-125
0.623 	-2.76194e-125
0.6237 	-2.61254e-125
0.6244 	-2.61468e-123
0.6251 	-4.60577e-123
0.6258 	-1.81674e-123
0.6265 	-2.06602e-125
0.6272 	-1.19253e-125
0.6279 	-3.33488e-126
0.6286 	-3.15624e-126
0.6293 	-2.65408e-124
0.63 	-5.99229e-124
0.6307 	-2.6526e-124
0.6314 	-2.62874e-126
0.6321 	-1.5774e-126
0.6328 	-5.26064e-127
0.6335 	-3.75052e-127
0.6342 	-2.56334e-125
0.6349 	-6.49355e-125
0.6356 	-3.68479e-125
0.6363 	-3.28031e-127
0.637 	-2.03584e-127
0.6377 	-7.91367e-128
0.6384 	-4.38552e-128
0.6391 	-2.31902e-126
0.6398 	-6.87171e-126
0.6405 	-4.91916e-126
0.6412 	-3.64507e-127
0.6419 	-2.56817e-128
0.6426 	-1.11824e-128
0.6433 	-5.04218e-129
0.644 	-1.90034e-127
0.6447 	-7.08498e-127
0.6454 	-6.34306e-127
0.6461 	-1.15622e-127
0.6468 	-3.1674e-129
0.6475 	-1.50649e-129
0.6482 	-5.70408e-130
0.6489 	-1.29924e-128
0.6496 	-7.10734e-128
0.6503 	-7.93602e-128
0.651 	-2.1255e-128
0.6517 	-3.82469e-130
0.6524 	-1.95341e-130
0.6531 	-6.36345e-131
0.6538 	-5.18755e-130
0.6545 	-6.93427e-129
0.6552 	-9.68303e-129
0.6559 	-3.26486e-129
0.6566 	-4.53472e-131
0.6573 	-2.45642e-131
0.658 	-7.01957e-132
0.6587 	-6.64708e-132
0.6594 	-6.57243e-130
0.6601 	-1.15768e-129
0.6608 	-4.56727e-130
0.6615 	-5.296e-132
0.6622 	-3.01491e-132
0.6629 	-7.68896e-133
0.6636 	-7.287e-133
0.6643 	-6.04297e-131
0.665 	-1.36423e-130
0.6657 	-6.0399e-131
0.6664 	-6.12114e-133
0.6671 	-3.6362e-133
0.6678 	-1.15125e-133
0.6685 	-7.97154e-134
0.6692 	-5.36587e-132
0.6699 	-1.35911e-131
0.6706 	-7.71311e-132
0.6713 	-7.03824e-134
0.672 	-4.33863e-134
0.6727 	-1.63901e-134
0.6734 	-8.75458e-135
0.6741 	-4.55366e-133
0.6748 	-1.34904e-132
0.6755 	-9.65783e-133
0.6762 	-7.17553e-134
0.6769 	-5.15867e-135
0.6776 	-2.21682e-135
0.6783 	-9.7158e-136
0.679 	-3.59795e-134
0.6797 	-1.3409e-133
0.6804 	-1.20052e-133
0.6811 	-2.19026e-134
0.6818 	-6.15223e-136
0.6825 	-2.90967e-136
0.6832 	-1.08152e-136
0.6839 	-2.41745e-135
0.6846 	-1.3214e-134
0.6853 	-1.47545e-134
0.686 	-3.9536e-135
0.6867 	-7.2925e-137
0.6874 	-3.68939e-137
0.6881 	-1.15161e-137
0.6888 	-9.19255e-137
0.6895 	-1.2255e-135
0.6902 	-1.71118e-135
0.6909 	-5.77134e-136
0.6916 	-8.16931e-138
0.6923 	-4.29989e-138
0.693 	-1.03087e-138
0.6937 	-9.65173e-139
0.6944 	-9.30023e-137
0.6951 	-1.63797e-136
0.6958 	-6.46316e-137
0.6965 	-7.57123e-139
0.6972 	-4.08152e-139
0.6979 	-6.43102e-140
0.6986 	-5.84378e-140
0.6993 	-5.54964e-140
0.7 	-5.33543e-140
