0 	1
0.0007 	1
0.0014 	1
0.0021 	1
0.0028 	1
0.0035 	1
0.0042 	1
0.0049 	1
0.0056 	1
0.0063 	1
0.007 	1
0.0077 	1
0.0084 	1
0.0091 	1
0.0098 	1
0.0105 	1
0.0112 	1
0.0119 	1
0.0126 	1
0.0133 	1
0.014 	1
0.0147 	1
0.0154 	1
0.0161 	1
0.0168 	1
0.0175 	1
0.0182 	1
0.0189 	1
0.0196 	1
0.0203 	1
0.021 	1
0.0217 	1
0.0224 	1
0.0231 	1
0.0238 	1
0.0245 	1
0.0252 	1
0.0259 	1
0.0266 	1
0.0273 	1
0.028 	1
0.0287 	1
0.0294 	1
0.0301 	1
0.0308 	1
0.0315 	1
0.0322 	1
0.0329 	1
0.0336 	1
0.0343 	1
0.035 	1
0.0357 	1
0.0364 	1
0.0371 	1
0.0378 	1
0.0385 	1
0.0392 	1
0.0399 	1
0.0406 	1
0.0413 	1
0.042 	1
0.0427 	1
0.0434 	1
0.0441 	1
0.0448 	1
0.0455 	1
0.0462 	1
0.0469 	1
0.0476 	1
0.0483 	1
0.049 	1
0.0497 	1
0.0504 	1
0.0511 	1
0.0518 	1
0.0525 	1
0.0532 	1
0.0539 	1
0.0546 	1
0.0553 	1
0.056 	1
0.0567 	1
0.0574 	1
0.0581 	1
0.0588 	1
0.0595 	1
0.0602 	1
0.0609 	1
0.0616 	1
0.0623 	1
0.063 	1
0.0637 	1
0.0644 	1
0.0651 	1
0.0658 	1
0.0665 	1
0.0672 	1
0.0679 	1
0.0686 	1
0.0693 	1
0.07 	1
0.0707 	1
0.0714 	1
0.0721 	1
0.0728 	1
0.0735 	1
0.0742 	1
0.0749 	1
0.0756 	1
0.0763 	1
0.077 	1
0.0777 	1
0.0784 	1
0.0791 	1
0.0798 	1
0.0805 	1
0.0812 	1
0.0819 	1
0.0826 	1
0.0833 	1
0.084 	1
0.0847 	1
0.0854 	1
0.0861 	1
0.0868 	1
0.0875 	1
0.0882 	1
0.0889 	1
0.0896 	1
0.0903 	1
0.091 	1
0.0917 	1
0.0924 	1
0.0931 	1
0.0938 	1
0.0945 	1
0.0952 	1
0.0959 	1
0.0966 	1
0.0973 	1
0.098 	1
0.0987 	1
0.0994 	1
0.1001 	1
0.1008 	1
0.1015 	1
0.1022 	1
0.1029 	1
0.1036 	1
0.1043 	1
0.105 	1
0.1057 	1
0.1064 	1
0.1071 	1
0.1078 	1
0.1085 	1
0.1092 	1
0.1099 	1
0.1106 	1
0.1113 	1
0.112 	1
0.1127 	1
0.1134 	1
0.1141 	1
0.1148 	1
0.1155 	1
0.1162 	1
0.1169 	1
0.1176 	1
0.1183 	1
0.119 	1
0.1197 	1
0.1204 	1
0.1211 	1
0.1218 	1
0.1225 	1
0.1232 	1
0.1239 	1
0.1246 	1
0.1253 	1
0.126 	1
0.1267 	1
0.1274 	1
0.1281 	1
0.1288 	1
0.1295 	1
0.1302 	1
0.1309 	1
0.1316 	1
0.1323 	1
0.133 	1
0.1337 	1
0.1344 	1
0.1351 	1
0.1358 	1
0.1365 	1
0.1372 	1
0.1379 	1
0.1386 	1
0.1393 	1
0.14 	1
0.1407 	1
0.1414 	1
0.1421 	1
0.1428 	1
0.1435 	1
0.1442 	1
0.1449 	1
0.1456 	1
0.1463 	1
0.147 	1
0.1477 	1
0.1484 	1
0.1491 	1
0.1498 	1
0.1505 	1
0.1512 	1
0.1519 	1
0.1526 	1
0.1533 	1
0.154 	1
0.1547 	1
0.1554 	1
0.1561 	1
0.1568 	1
0.1575 	1
0.1582 	1
0.1589 	1
0.1596 	1
0.1603 	1
0.161 	1
0.1617 	1
0.1624 	1
0.1631 	1
0.1638 	1
0.1645 	1
0.1652 	1
0.1659 	1
0.1666 	1
0.1673 	1
0.168 	1
0.1687 	1
0.1694 	1
0.1701 	1
0.1708 	1
0.1715 	1
0.1722 	1
0.1729 	1
0.1736 	1
0.1743 	1
0.175 	1
0.1757 	1
0.1764 	1
0.1771 	1
0.1778 	1
0.1785 	1
0.1792 	1
0.1799 	1
0.1806 	1
0.1813 	1
0.182 	1
0.1827 	1
0.1834 	1
0.1841 	1
0.1848 	1
0.1855 	1
0.1862 	1
0.1869 	1
0.1876 	1
0.1883 	1
0.189 	1
0.1897 	1
0.1904 	1
0.1911 	1
0.1918 	1
0.1925 	1
0.1932 	1
0.1939 	1
0.1946 	1
0.1953 	1
0.196 	1
0.1967 	1
0.1974 	1
0.1981 	1
0.1988 	1
0.1995 	1
0.2002 	1
0.2009 	1
0.2016 	1
0.2023 	1
0.203 	1
0.2037 	1
0.2044 	1
0.2051 	1
0.2058 	1
0.2065 	1
0.2072 	1
0.2079 	1
0.2086 	1
0.2093 	1
0.21 	1
0.2107 	1
0.2114 	1
0.2121 	1
0.2128 	1
0.2135 	1
0.2142 	1
0.2149 	1
0.2156 	1
0.2163 	1
0.217 	1
0.2177 	1
0.2184 	1
0.2191 	1
0.2198 	1
0.2205 	1
0.2212 	1
0.2219 	1
0.2226 	1
0.2233 	1
0.224 	1
0.2247 	1
0.2254 	1
0.2261 	1
0.2268 	1
0.2275 	1
0.2282 	1
0.2289 	1
0.2296 	1
0.2303 	1
0.231 	1
0.2317 	1
0.2324 	1
0.2331 	1
0.2338 	1
0.2345 	1
0.2352 	1
0.2359 	1
0.2366 	1
0.2373 	1
0.238 	1
0.2387 	1
0.2394 	1
0.2401 	1
0.2408 	0.999999
0.2415 	0.999999
0.2422 	0.999998
0.2429 	0.999997
0.2436 	0.999996
0.2443 	0.999996
0.245 	0.999993
0.2457 	0.999903
0.2464 	0.999727
0.2471 	0.99955
0.2478 	0.999373
0.2485 	0.999196
0.2492 	0.999019
0.2499 	0.998657
0.2506 	0.996228
0.2513 	0.99029
0.252 	0.984348
0.2527 	0.978407
0.2534 	0.972465
0.2541 	0.966524
0.2548 	0.958308
0.2555 	0.937886
0.2562 	0.898009
0.2569 	0.858123
0.2576 	0.818236
0.2583 	0.778349
0.259 	0.738463
0.2597 	0.696036
0.2604 	0.620955
0.2611 	0.558977
0.2618 	0.497001
0.2625 	0.435025
0.2632 	0.373049
0.2639 	0.311073
0.2646 	0.249097
0.2653 	0.2025
0.266 	0.171481
0.2667 	0.141623
0.2674 	0.111768
0.2681 	0.0819124
0.2688 	0.0520574
0.2695 	0.0222023
0.2702 	0.0140208
0.2709 	0.0117748
0.2716 	0.00969527
0.2723 	0.00761656
0.273 	0.00553785
0.2737 	0.00345915
0.2744 	0.00138044
0.2751 	0.000577929
0.2758 	0.00048412
0.2765 	0.000402268
0.2772 	0.000320453
0.2779 	0.000238637
0.2786 	0.000156821
0.2793 	7.50051e-05
0.28 	3.18015e-05
0.2807 	2.65166e-05
0.2814 	2.21344e-05
0.2821 	1.77547e-05
0.2828 	1.33749e-05
0.2835 	8.9952e-06
0.2842 	4.61546e-06
0.2849 	1.71368e-06
0.2856 	1.43221e-06
0.2863 	1.19924e-06
0.287 	9.6644e-07
0.2877 	7.33636e-07
0.2884 	5.00833e-07
0.2891 	2.68029e-07
0.2898 	8.28237e-08
0.2905 	6.95336e-08
0.2912 	5.82749e-08
0.2919 	4.70247e-08
0.2926 	3.57751e-08
0.2933 	2.45256e-08
0.294 	1.32761e-08
0.2947 	2.80903e-09
0.2954 	2.36828e-09
0.2961 	1.98485e-09
0.2968 	1.60173e-09
0.2975 	1.21869e-09
0.2982 	8.3565e-10
0.2989 	4.52613e-10
0.2996 	6.95751e-11
0.3003 	3.81756e-11
0.301 	3.31675e-11
0.3017 	2.82828e-11
0.3024 	2.34004e-11
0.3031 	1.85181e-11
0.3038 	1.36357e-11
0.3045 	8.75337e-12
0.3052 	7.92247e-12
0.3059 	7.97854e-12
0.3066 	7.97416e-12
0.3073 	7.9692e-12
0.308 	7.96424e-12
0.3087 	7.95927e-12
0.3094 	7.95431e-12
0.3101 	7.69579e-12
0.3108 	7.28565e-12
0.3115 	6.85246e-12
0.3122 	6.41987e-12
0.3129 	5.98728e-12
0.3136 	5.55469e-12
0.3143 	5.1221e-12
0.315 	4.63513e-12
0.3157 	4.15874e-12
0.3164 	3.74594e-12
0.3171 	3.3341e-12
0.3178 	2.92225e-12
0.3185 	2.51041e-12
0.3192 	2.09857e-12
0.3199 	1.76212e-12
0.3206 	1.56775e-12
0.3213 	1.4023e-12
0.322 	1.23732e-12
0.3227 	1.07234e-12
0.3234 	9.07363e-13
0.3241 	7.42385e-13
0.3248 	5.96549e-13
0.3255 	5.20868e-13
0.3262 	4.60297e-13
0.3269 	3.99902e-13
0.3276 	3.3952e-13
0.3283 	2.79139e-13
0.329 	2.18757e-13
0.3297 	1.61211e-13
0.3304 	1.38277e-13
0.3311 	1.20837e-13
0.3318 	1.0344e-13
0.3325 	8.60554e-14
0.3332 	6.86705e-14
0.3339 	5.12857e-14
0.3346 	3.39008e-14
0.3353 	2.80529e-14
0.336 	2.42083e-14
0.3367 	2.049e-14
0.3374 	1.67759e-14
0.3381 	1.30619e-14
0.3388 	9.34783e-15
0.3395 	5.63377e-15
0.3402 	4.24373e-15
0.3409 	3.60626e-15
0.3416 	3.02655e-15
0.3423 	2.44778e-15
0.343 	1.86901e-15
0.3437 	1.29024e-15
0.3444 	7.11464e-16
0.3451 	4.54901e-16
0.3458 	3.81148e-16
0.3465 	3.17997e-16
0.3472 	2.54976e-16
0.3479 	1.91956e-16
0.3486 	1.28936e-16
0.3493 	6.59163e-17
0.35 	3.20491e-17
0.3507 	2.65326e-17
0.3514 	2.20554e-17
0.3521 	1.75898e-17
0.3528 	1.31241e-17
0.3535 	8.6584e-18
0.3542 	4.19272e-18
0.3549 	1.27386e-18
0.3556 	1.05411e-18
0.3563 	8.75162e-19
0.357 	6.96767e-19
0.3577 	5.18372e-19
0.3584 	3.39977e-19
0.3591 	1.61582e-19
0.3598 	2.17e-20
0.3605 	1.81681e-20
0.3612 	1.51091e-20
0.3619 	1.20598e-20
0.3626 	9.01123e-21
0.3633 	5.96269e-21
0.364 	2.91414e-21
0.3647 	9.84445e-23
0.3654 	8.4821e-23
0.3661 	7.08066e-23
0.3668 	5.68347e-23
0.3675 	4.28744e-23
0.3682 	2.89141e-23
0.3689 	1.49537e-23
0.3696 	9.9344e-25
0.3703 	6.54767e-26
0.371 	5.47434e-26
0.3717 	4.42198e-26
0.3724 	3.37143e-26
0.3731 	2.32088e-26
0.3738 	1.27032e-26
0.3745 	2.19772e-27
0.3752 	6.24442e-30
0.3759 	5.22568e-30
0.3766 	4.24689e-30
0.3773 	3.27096e-30
0.378 	2.29502e-30
0.3787 	1.31909e-30
0.3794 	3.43159e-31
0.3801 	4.36182e-34
0.3808 	3.65075e-34
0.3815 	2.98438e-34
0.3822 	2.32033e-34
0.3829 	1.65628e-34
0.3836 	9.92235e-35
0.3843 	3.28186e-35
0.385 	3.01773e-38
0.3857 	2.52637e-38
0.3864 	2.07675e-38
0.3871 	1.62887e-38
0.3878 	1.18099e-38
0.3885 	7.33102e-39
0.3892 	2.85218e-39
0.3899 	1.96685e-42
0.3906 	1.68734e-42
0.3913 	1.39438e-42
0.392 	1.10263e-42
0.3927 	8.10886e-43
0.3934 	5.19139e-43
0.3941 	2.27391e-43
0.3948 	1.23136e-46
0.3955 	1.08282e-46
0.3962 	8.99363e-47
0.3969 	7.16598e-47
0.3976 	5.33887e-47
0.3983 	3.51176e-47
0.399 	1.68464e-47
0.3997 	7.4112e-51
0.4004 	6.68475e-51
0.4011 	5.57923e-51
0.4018 	4.47693e-51
0.4025 	3.3755e-51
0.4032 	2.27407e-51
0.4039 	1.17264e-51
0.4046 	7.12051e-53
0.4053 	3.99933e-55
0.406 	3.34634e-55
0.4067 	2.70308e-55
0.4074 	2.0606e-55
0.4081 	1.41813e-55
0.4088 	7.75652e-56
0.4095 	1.33175e-56
0.4102 	2.33411e-59
0.4109 	1.95472e-59
0.4116 	1.58888e-59
0.4123 	1.22362e-59
0.413 	8.58352e-60
0.4137 	4.93085e-60
0.4144 	1.27819e-60
0.4151 	1.33693e-63
0.4158 	1.12074e-63
0.4165 	9.16388e-64
0.4172 	7.1241e-64
0.4179 	5.08433e-64
0.4186 	3.04455e-64
0.4193 	1.00478e-64
0.42 	7.56552e-68
0.4207 	6.34892e-68
0.4214 	5.22038e-68
0.4221 	4.09415e-68
0.4228 	2.96792e-68
0.4235 	1.84168e-68
0.4242 	7.15451e-69
0.4249 	4.05858e-72
0.4256 	3.50736e-72
0.4263 	2.88718e-72
0.427 	2.26926e-72
0.4277 	1.65134e-72
0.4284 	1.03342e-72
0.4291 	4.15506e-73
0.4298 	-7.62475e-74
0.4305 	-6.39602e-74
0.4312 	-5.89107e-74
0.4319 	-5.85802e-74
0.4326 	-5.86126e-74
0.4333 	-5.86451e-74
0.434 	-5.86776e-74
0.4347 	-6.23412e-74
0.4354 	-5.81847e-74
0.4361 	-4.99888e-74
0.4368 	-4.8222e-74
0.4375 	-4.82086e-74
0.4382 	-4.81952e-74
0.4389 	-4.81818e-74
0.4396 	-4.81684e-74
0.4403 	-5.11492e-74
0.441 	-4.0241e-74
0.4417 	-3.71572e-74
0.4424 	-3.71421e-74
0.4431 	-3.7127e-74
0.4438 	-3.71119e-74
0.4445 	-3.70967e-74
0.4452 	-4.35076e-74
0.4459 	-3.10366e-74
0.4466 	-2.71365e-74
0.4473 	-2.71225e-74
0.448 	-2.71085e-74
0.4487 	-2.70945e-74
0.4494 	-2.70805e-74
0.4501 	-3.4763e-74
0.4508 	-2.30082e-74
0.4515 	-1.88858e-74
0.4522 	-1.88741e-74
0.4529 	-1.88625e-74
0.4536 	-1.88508e-74
0.4543 	-1.88391e-74
0.455 	-2.62709e-74
0.4557 	-1.64198e-74
0.4564 	-1.25631e-74
0.4571 	-1.25541e-74
0.4578 	-1.2545e-74
0.4585 	-1.25359e-74
0.4592 	-1.25268e-74
0.4599 	-1.60781e-74
0.4606 	-1.1287e-74
0.4613 	-8.003e-75
0.462 	-7.9963e-75
0.4627 	-7.9896e-75
0.4634 	-7.98289e-75
0.4641 	-7.97619e-75
0.4648 	-9.35225e-75
0.4655 	-7.47379e-75
0.4662 	-5.06062e-75
0.4669 	-4.88388e-75
0.4676 	-4.87917e-75
0.4683 	-4.87446e-75
0.469 	-4.86976e-75
0.4697 	-5.16958e-75
0.4704 	-4.76667e-75
0.4711 	-3.20138e-75
0.4718 	-2.86348e-75
0.4725 	-2.86033e-75
0.4732 	-2.85717e-75
0.4739 	-2.85402e-75
0.4746 	-2.85086e-75
0.4753 	-3.02833e-75
0.476 	-1.96023e-75
0.4767 	-1.61333e-75
0.4774 	-1.61131e-75
0.4781 	-1.60929e-75
0.4788 	-1.60727e-75
0.4795 	-1.60525e-75
0.4802 	-1.88276e-75
0.4809 	-1.16069e-75
0.4816 	-8.74355e-76
0.4823 	-8.73117e-76
0.483 	-8.71878e-76
0.4837 	-8.7064e-76
0.4844 	-8.69402e-76
0.4851 	-1.11573e-75
0.4858 	-6.64118e-76
0.4865 	-4.56255e-76
0.4872 	-4.55527e-76
0.4879 	-4.548e-76
0.4886 	-4.54073e-76
0.4893 	-4.53346e-76
0.49 	-6.31765e-76
0.4907 	-3.67004e-76
0.4914 	-2.29445e-76
0.4921 	-2.29035e-76
0.4928 	-2.28625e-76
0.4935 	-2.28214e-76
0.4942 	-2.27804e-76
0.4949 	-2.92145e-76
0.4956 	-1.95821e-76
0.4963 	-1.11294e-76
0.497 	-1.11072e-76
0.4977 	-1.10849e-76
0.4984 	-1.10626e-76
0.4991 	-1.10403e-76
0.4998 	-1.29326e-76
0.5005 	-1.00868e-76
0.5012 	-5.53558e-77
0.5019 	-5.19965e-77
0.5026 	-5.18798e-77
0.5033 	-5.17632e-77
0.504 	-5.16465e-77
0.5047 	-5.47687e-77
0.5054 	-5.01629e-77
0.5061 	-2.82572e-77
0.5068 	-2.35169e-77
0.5075 	-2.3458e-77
0.5082 	-2.33991e-77
0.5089 	-2.33402e-77
0.5096 	-2.32813e-77
0.5103 	-2.47272e-77
0.511 	-1.39318e-77
0.5117 	-1.02852e-77
0.5124 	-1.02565e-77
0.5131 	-1.02279e-77
0.5138 	-1.01992e-77
0.5145 	-1.01705e-77
0.5152 	-1.19203e-77
0.5159 	-6.63309e-78
0.5166 	-4.35423e-78
0.5173 	-4.34073e-78
0.518 	-4.32724e-78
0.5187 	-4.31375e-78
0.5194 	-4.30026e-78
0.5201 	-5.51142e-78
0.5208 	-3.05037e-78
0.5215 	-1.78621e-78
0.5222 	-1.78008e-78
0.5229 	-1.77395e-78
0.5236 	-1.76782e-78
0.5243 	-1.76169e-78
0.525 	-2.45023e-78
0.5257 	-1.35567e-78
0.5264 	-7.10831e-79
0.5271 	-7.08138e-79
0.5278 	-7.05445e-79
0.5285 	-7.02753e-79
0.5292 	-7.0006e-79
0.5299 	-8.95827e-79
0.5306 	-5.82725e-79
0.5313 	-2.74717e-79
0.532 	-2.73572e-79
0.5327 	-2.72427e-79
0.5334 	-2.71282e-79
0.5341 	-2.70137e-79
0.5348 	-3.15686e-79
0.5355 	-2.42479e-79
0.5362 	-1.1246e-79
0.5369 	-1.02735e-79
0.5376 	-1.02263e-79
0.5383 	-1.01792e-79
0.539 	-1.0132e-79
0.5397 	-1.07175e-79
0.5404 	-9.77646e-80
0.5411 	-4.82832e-80
0.5418 	-3.7532e-80
0.5425 	-3.73436e-80
0.5432 	-3.71553e-80
0.5439 	-3.69669e-80
0.5446 	-3.67785e-80
0.5453 	-3.90365e-80
0.546 	-1.99292e-80
0.5467 	-1.33481e-80
0.5474 	-1.32751e-80
0.5481 	-1.32021e-80
0.5488 	-1.3129e-80
0.5495 	-1.3056e-80
0.5502 	-1.5279e-80
0.5509 	-7.92702e-81
0.5516 	-4.62465e-81
0.5523 	-4.59716e-81
0.553 	-4.56967e-81
0.5537 	-4.54218e-81
0.5544 	-4.51469e-81
0.5551 	-5.7725e-81
0.5558 	-3.04474e-81
0.5565 	-1.56214e-81
0.5572 	-1.55208e-81
0.5579 	-1.54203e-81
0.5586 	-1.53197e-81
0.5593 	-1.52192e-81
0.56 	-2.10989e-81
0.5607 	-1.13138e-81
0.5614 	-5.14806e-82
0.5621 	-5.11229e-82
0.5628 	-5.07653e-82
0.5635 	-5.04077e-82
0.5642 	-5.005e-82
0.5649 	-6.38204e-82
0.5656 	-4.07351e-82
0.5663 	-1.65617e-82
0.567 	-1.64379e-82
0.5677 	-1.63141e-82
0.5684 	-1.61903e-82
0.5691 	-1.60665e-82
0.5698 	-1.87044e-82
0.5705 	-1.42303e-82
0.5712 	-5.80318e-83
0.5719 	-5.1625e-83
0.5726 	-5.12078e-83
0.5733 	-5.07906e-83
0.574 	-5.03734e-83
0.5747 	-5.30705e-83
0.5754 	-4.82926e-83
0.5761 	-2.16628e-83
0.5768 	-1.58488e-83
0.5775 	-1.57118e-83
0.5782 	-1.55749e-83
0.5789 	-1.54379e-83
0.5796 	-1.53009e-83
0.5803 	-1.62231e-83
0.581 	-7.72331e-84
0.5817 	-4.75998e-84
0.5824 	-4.71612e-84
0.5831 	-4.67227e-84
0.5838 	-4.62842e-84
0.5845 	-4.58457e-84
0.5852 	-5.35394e-84
0.5859 	-2.64598e-84
0.5866 	-1.39943e-84
0.5873 	-1.38573e-84
0.588 	-1.37203e-84
0.5887 	-1.35833e-84
0.5894 	-1.34462e-84
0.5901 	-1.71393e-84
0.5908 	-8.74846e-85
0.5915 	-4.02981e-85
0.5922 	-3.98798e-85
0.5929 	-3.94616e-85
0.5936 	-3.90434e-85
0.5943 	-3.86251e-85
0.595 	-5.33302e-85
0.5957 	-2.80049e-85
0.5964 	-1.13728e-85
0.5971 	-1.1248e-85
0.5978 	-1.11232e-85
0.5985 	-1.09985e-85
0.5992 	-1.08737e-85
0.5999 	-1.38039e-85
0.6006 	-8.70164e-86
0.6013 	-3.14749e-86
0.602 	-3.11109e-86
0.6027 	-3.07468e-86
0.6034 	-3.03828e-86
0.6041 	-3.00188e-86
0.6048 	-3.47801e-86
0.6055 	-2.62989e-86
0.6062 	-9.72331e-87
0.6069 	-8.44279e-87
0.6076 	-8.33882e-87
0.6083 	-8.23486e-87
0.609 	-8.13089e-87
0.6097 	-8.52263e-87
0.6104 	-7.74394e-87
0.6111 	-3.2375e-87
0.6118 	-2.24898e-87
0.6125 	-2.2199e-87
0.6132 	-2.19082e-87
0.6139 	-2.16173e-87
0.6146 	-2.13265e-87
0.6153 	-2.25823e-87
0.616 	-1.02268e-87
0.6167 	-5.88284e-88
0.6174 	-5.80311e-88
0.6181 	-5.72338e-88
0.6188 	-5.64366e-88
0.6195 	-5.56393e-88
0.6202 	-6.48194e-88
0.6209 	-3.09561e-88
0.6216 	-1.5116e-88
0.6223 	-1.49017e-88
0.623 	-1.46874e-88
0.6237 	-1.44731e-88
0.6244 	-1.42588e-88
0.6251 	-1.81119e-88
0.6258 	-9.03594e-89
0.6265 	-3.81639e-89
0.6272 	-3.75988e-89
0.6279 	-3.70337e-89
0.6286 	-3.64687e-89
0.6293 	-3.59036e-89
0.63 	-4.935e-89
0.6307 	-2.55432e-89
0.6314 	-9.46958e-90
0.6321 	-9.32337e-90
0.6328 	-9.17716e-90
0.6335 	-9.03095e-90
0.6342 	-8.88473e-90
0.6349 	-1.12229e-89
0.6356 	-7.01409e-90
0.6363 	-2.30983e-90
0.637 	-2.27269e-90
0.6377 	-2.23555e-90
0.6384 	-2.19841e-90
0.6391 	-2.16127e-90
0.6398 	-2.49046e-90
0.6405 	-1.87523e-90
0.6412 	-6.41469e-91
0.6419 	-5.44741e-91
0.6426 	-5.35478e-91
0.6433 	-5.26214e-91
0.644 	-5.16951e-91
0.6447 	-5.38678e-91
0.6454 	-4.88998e-91
0.6461 	-1.9352e-91
0.6468 	-1.2842e-91
0.6475 	-1.2615e-91
0.6482 	-1.2388e-91
0.6489 	-1.2161e-91
0.6496 	-1.19341e-91
0.6503 	-1.26182e-91
0.651 	-5.49788e-92
0.6517 	-2.97806e-92
0.6524 	-2.9234e-92
0.6531 	-2.86874e-92
0.6538 	-2.81408e-92
0.6545 	-2.75942e-92
0.6552 	-3.20615e-92
0.6559 	-1.49119e-92
0.6566 	-6.79365e-93
0.6573 	-6.66426e-93
0.658 	-6.53488e-93
0.6587 	-6.40549e-93
0.6594 	-6.2761e-93
0.6601 	-7.94165e-93
0.6608 	-3.89255e-93
0.6615 	-1.52443e-93
0.6622 	-1.49432e-93
0.6629 	-1.46421e-93
0.6636 	-1.43409e-93
0.6643 	-1.40398e-93
0.665 	-1.92022e-93
0.6657 	-9.82832e-94
0.6664 	-3.36363e-94
0.6671 	-3.29473e-94
0.6678 	-3.22584e-94
0.6685 	-3.15694e-94
0.6692 	-3.08804e-94
0.6699 	-3.87878e-94
0.6706 	-2.40779e-94
0.6713 	-7.28972e-95
0.672 	-7.13473e-95
0.6727 	-6.97975e-95
0.6734 	-6.82476e-95
0.6741 	-6.66978e-95
0.6748 	-7.63721e-95
0.6755 	-5.73007e-95
0.6762 	-1.82161e-95
0.6769 	-1.51062e-95
0.6776 	-1.47635e-95
0.6783 	-1.44208e-95
0.679 	-1.40781e-95
0.6797 	-1.45651e-95
0.6804 	-1.32079e-95
0.6811 	-4.91406e-96
0.6818 	-3.07841e-96
0.6825 	-3.00409e-96
0.6832 	-2.92977e-96
0.6839 	-2.85545e-96
0.6846 	-2.78112e-96
0.6853 	-2.93577e-96
0.686 	-1.19731e-96
0.6867 	-5.77017e-97
0.6874 	-5.61379e-97
0.6881 	-5.45742e-97
0.6888 	-5.30104e-97
0.6895 	-5.14466e-97
0.6902 	-5.9553e-97
0.6909 	-2.54767e-97
0.6916 	-8.91395e-98
0.6923 	-8.60782e-98
0.693 	-8.3017e-98
0.6937 	-7.99558e-98
0.6944 	-7.68946e-98
0.6951 	-9.64652e-98
0.6958 	-3.93501e-98
0.6965 	-2.46145e-99
0.6972 	-1.97459e-99
0.6979 	-1.48773e-99
0.6986 	-1.00087e-99
0.6993 	-5.14009e-100
0.7 	-2.66e-100
