0 	1
0.0007 	1
0.0014 	1
0.0021 	1
0.0028 	1
0.0035 	1
0.0042 	1
0.0049 	1
0.0056 	1
0.0063 	1
0.007 	1
0.0077 	1
0.0084 	1
0.0091 	1
0.0098 	1
0.0105 	1
0.0112 	1
0.0119 	1
0.0126 	1
0.0133 	1
0.014 	1
0.0147 	1
0.0154 	1
0.0161 	1
0.0168 	1
0.0175 	1
0.0182 	1
0.0189 	1
0.0196 	1
0.0203 	1
0.021 	1
0.0217 	1
0.0224 	1
0.0231 	1
0.0238 	1
0.0245 	1
0.0252 	1
0.0259 	1
0.0266 	1
0.0273 	1
0.028 	1
0.0287 	1
0.0294 	1
0.0301 	1
0.0308 	1
0.0315 	1
0.0322 	1
0.0329 	1
0.0336 	1
0.0343 	1
0.035 	1
0.0357 	1
0.0364 	1
0.0371 	1
0.0378 	1
0.0385 	1
0.0392 	1
0.0399 	1
0.0406 	1
0.0413 	1
0.042 	1
0.0427 	1
0.0434 	1
0.0441 	1
0.0448 	1
0.0455 	1
0.0462 	1
0.0469 	1
0.0476 	1
0.0483 	1
0.049 	1
0.0497 	1
0.0504 	1
0.0511 	1
0.0518 	1
0.0525 	1
0.0532 	1
0.0539 	1
0.0546 	1
0.0553 	1
0.056 	1
0.0567 	1
0.0574 	1
0.0581 	1
0.0588 	1
0.0595 	1
0.0602 	1
0.0609 	1
0.0616 	1
0.0623 	1
0.063 	1
0.0637 	1
0.0644 	1
0.0651 	1
0.0658 	1
0.0665 	1
0.0672 	1
0.0679 	1
0.0686 	1
0.0693 	1
0.07 	1
0.0707 	1
0.0714 	1
0.0721 	1
0.0728 	1
0.0735 	1
0.0742 	1
0.0749 	1
0.0756 	1
0.0763 	1
0.077 	1
0.0777 	1
0.0784 	1
0.0791 	1
0.0798 	1
0.0805 	1
0.0812 	1
0.0819 	1
0.0826 	1
0.0833 	1
0.084 	1
0.0847 	1
0.0854 	1
0.0861 	1
0.0868 	1
0.0875 	1
0.0882 	1
0.0889 	1
0.0896 	1
0.0903 	1
0.091 	1
0.0917 	1
0.0924 	1
0.0931 	1
0.0938 	1
0.0945 	1
0.0952 	1
0.0959 	1
0.0966 	1
0.0973 	1
0.098 	1
0.0987 	1
0.0994 	1
0.1001 	1
0.1008 	1
0.1015 	1
0.1022 	1
0.1029 	1
0.1036 	1
0.1043 	1
0.105 	1
0.1057 	1
0.1064 	1
0.1071 	1
0.1078 	1
0.1085 	1
0.1092 	1
0.1099 	1
0.1106 	1
0.1113 	1
0.112 	1
0.1127 	1
0.1134 	1
0.1141 	1
0.1148 	1
0.1155 	1
0.1162 	1
0.1169 	1
0.1176 	1
0.1183 	1
0.119 	1
0.1197 	1
0.1204 	1
0.1211 	1
0.1218 	1
0.1225 	1
0.1232 	1
0.1239 	1
0.1246 	1
0.1253 	1
0.126 	1
0.1267 	1
0.1274 	1
0.1281 	1
0.1288 	1
0.1295 	1
0.1302 	1
0.1309 	1
0.1316 	1
0.1323 	1
0.133 	1
0.1337 	1
0.1344 	1
0.1351 	1
0.1358 	1
0.1365 	1
0.1372 	1
0.1379 	1
0.1386 	1
0.1393 	1
0.14 	1
0.1407 	1
0.1414 	1
0.1421 	1
0.1428 	1
0.1435 	1
0.1442 	1
0.1449 	1
0.1456 	1
0.1463 	1
0.147 	1
0.1477 	1
0.1484 	1
0.1491 	1
0.1498 	1
0.1505 	1
0.1512 	1
0.1519 	1
0.1526 	1
0.1533 	1
0.154 	1
0.1547 	1
0.1554 	1
0.1561 	1
0.1568 	1
0.1575 	1
0.1582 	1
0.1589 	1
0.1596 	1
0.1603 	1
0.161 	1
0.1617 	1
0.1624 	1
0.1631 	1
0.1638 	1
0.1645 	1
0.1652 	1
0.1659 	1
0.1666 	1
0.1673 	1
0.168 	1
0.1687 	1
0.1694 	1
0.1701 	1
0.1708 	1
0.1715 	1
0.1722 	1
0.1729 	1
0.1736 	1
0.1743 	1
0.175 	1
0.1757 	1
0.1764 	1
0.1771 	1
0.1778 	1
0.1785 	1
0.1792 	1
0.1799 	1
0.1806 	1
0.1813 	1
0.182 	1
0.1827 	1
0.1834 	1
0.1841 	1
0.1848 	1
0.1855 	1
0.1862 	1
0.1869 	1
0.1876 	1
0.1883 	1
0.189 	1
0.1897 	1
0.1904 	1
0.1911 	1
0.1918 	1
0.1925 	1
0.1932 	1
0.1939 	1
0.1946 	1
0.1953 	1
0.196 	1
0.1967 	1
0.1974 	1
0.1981 	1
0.1988 	1
0.1995 	1
0.2002 	1
0.2009 	1
0.2016 	1
0.2023 	1
0.203 	1
0.2037 	1
0.2044 	1
0.2051 	1
0.2058 	1
0.2065 	1
0.2072 	1
0.2079 	1
0.2086 	1
0.2093 	1
0.21 	1
0.2107 	1
0.2114 	1
0.2121 	1
0.2128 	1
0.2135 	1
0.2142 	1
0.2149 	1
0.2156 	1
0.2163 	1
0.217 	1
0.2177 	1
0.2184 	1
0.2191 	1
0.2198 	1
0.2205 	1
0.2212 	1
0.2219 	1
0.2226 	1
0.2233 	1
0.224 	1
0.2247 	1
0.2254 	1
0.2261 	1
0.2268 	1
0.2275 	1
0.2282 	1
0.2289 	1
0.2296 	1
0.2303 	1
0.231 	1
0.2317 	1
0.2324 	1
0.2331 	1
0.2338 	1
0.2345 	1
0.2352 	1
0.2359 	1
0.2366 	1
0.2373 	1
0.238 	1
0.2387 	1
0.2394 	0.999999
0.2401 	0.999999
0.2408 	0.999999
0.2415 	0.999996
0.2422 	0.999986
0.2429 	0.999938
0.2436 	0.99987
0.2443 	0.999793
0.245 	0.999714
0.2457 	0.99972
0.2464 	0.999517
0.2471 	0.998547
0.2478 	0.996432
0.2485 	0.993125
0.2492 	0.989189
0.2499 	0.984905
0.2506 	0.982671
0.2513 	0.979789
0.252 	0.964034
0.2527 	0.943317
0.2534 	0.913256
0.2541 	0.876258
0.2548 	0.832322
0.2555 	0.793647
0.2562 	0.757078
0.2569 	0.70259
0.2576 	0.645449
0.2583 	0.583337
0.259 	0.514329
0.2597 	0.432908
0.2604 	0.350122
0.2611 	0.266314
0.2618 	0.206225
0.2625 	0.153457
0.2632 	0.113773
0.2639 	0.0805599
0.2646 	0.0710768
0.2653 	0.0581997
0.266 	0.040797
0.2667 	0.0261383
0.2674 	0.013004
0.2681 	0.00773325
0.2688 	0.00346844
0.2695 	0.00317995
0.2702 	0.00275037
0.2709 	0.00196807
0.2716 	0.00127012
0.2723 	0.000656528
0.273 	0.000374491
0.2737 	0.00018852
0.2744 	0.000159996
0.2751 	0.000140471
0.2758 	0.000102271
0.2765 	6.71661e-05
0.2772 	3.76321e-05
0.2779 	2.07334e-05
0.2786 	1.11779e-05
0.2793 	8.46264e-06
0.28 	7.6129e-06
0.2807 	5.60644e-06
0.2814 	3.697e-06
0.2821 	2.14331e-06
0.2828 	1.10796e-06
0.2835 	6.13115e-07
0.2842 	4.10771e-07
0.2849 	3.70933e-07
0.2856 	2.81708e-07
0.2863 	1.85804e-07
0.287 	1.10075e-07
0.2877 	5.24571e-08
0.2884 	2.89764e-08
0.2891 	1.64159e-08
0.2898 	1.47757e-08
0.2905 	1.15333e-08
0.2912 	7.64997e-09
0.2919 	4.58038e-09
0.2926 	1.9957e-09
0.2933 	1.06159e-09
0.294 	4.4194e-10
0.2947 	3.88324e-10
0.2954 	3.07809e-10
0.2961 	2.07121e-10
0.2968 	1.26577e-10
0.2975 	5.44993e-11
0.2982 	2.82983e-11
0.2989 	7.6076e-12
0.2996 	7.12223e-12
0.3003 	6.6341e-12
0.301 	6.14228e-12
0.3017 	5.8834e-12
0.3024 	5.75393e-12
0.3031 	5.46992e-12
0.3038 	5.19797e-12
0.3045 	5.26241e-12
0.3052 	5.26811e-12
0.3059 	5.12693e-12
0.3066 	4.96133e-12
0.3073 	4.7713e-12
0.308 	4.55074e-12
0.3087 	4.3213e-12
0.3094 	4.04648e-12
0.3101 	3.72732e-12
0.3108 	3.16303e-12
0.3115 	2.65963e-12
0.3122 	2.26579e-12
0.3129 	1.96143e-12
0.3136 	1.70916e-12
0.3143 	1.59052e-12
0.315 	1.50833e-12
0.3157 	1.23518e-12
0.3164 	9.75652e-13
0.3171 	7.66101e-13
0.3178 	6.13877e-13
0.3185 	5.21508e-13
0.3192 	4.69837e-13
0.3199 	4.40776e-13
0.3206 	3.60202e-13
0.3213 	2.72456e-13
0.322 	2.03097e-13
0.3227 	1.48285e-13
0.3234 	1.20932e-13
0.3241 	1.0343e-13
0.3248 	9.57798e-14
0.3255 	7.84896e-14
0.3262 	5.73435e-14
0.3269 	4.06968e-14
0.3276 	2.64431e-14
0.3283 	2.02058e-14
0.329 	1.56901e-14
0.3297 	1.42737e-14
0.3304 	1.18841e-14
0.3311 	8.76468e-15
0.3318 	6.24765e-15
0.3325 	3.97669e-15
0.3332 	2.97537e-15
0.3339 	2.13753e-15
0.3346 	1.89915e-15
0.3353 	1.62302e-15
0.336 	1.29655e-15
0.3367 	1.02854e-15
0.3374 	7.93006e-16
0.3381 	6.33709e-16
0.3388 	4.87734e-16
0.3395 	4.25964e-16
0.3402 	3.66013e-16
0.3409 	3.10612e-16
0.3416 	2.6306e-16
0.3423 	2.23357e-16
0.343 	1.85926e-16
0.3437 	1.49156e-16
0.3444 	1.26982e-16
0.3451 	1.0631e-16
0.3458 	8.79036e-17
0.3465 	7.14908e-17
0.3472 	5.86653e-17
0.3479 	4.69812e-17
0.3486 	3.59623e-17
0.3493 	2.93439e-17
0.35 	2.39256e-17
0.3507 	1.898e-17
0.3514 	1.4383e-17
0.3521 	1.10647e-17
0.3528 	8.16871e-18
0.3535 	5.7142e-18
0.3542 	4.31041e-18
0.3549 	3.49036e-18
0.3556 	2.69452e-18
0.3563 	1.92191e-18
0.357 	1.39894e-18
0.3577 	9.37576e-19
0.3584 	5.92647e-19
0.3591 	3.82836e-19
0.3598 	3.08145e-19
0.3605 	2.33593e-19
0.3612 	1.59097e-19
0.3619 	1.08592e-19
0.3626 	6.39405e-20
0.3633 	3.50142e-20
0.364 	1.53773e-20
0.3647 	1.24618e-20
0.3654 	9.45306e-21
0.3661 	6.37432e-21
0.3668 	4.1148e-21
0.3675 	2.13589e-21
0.3682 	1.04953e-21
0.3689 	1.89369e-22
0.3696 	1.5861e-22
0.3703 	1.24146e-22
0.371 	8.47413e-23
0.3717 	5.32903e-23
0.3724 	2.62579e-23
0.3731 	1.23781e-23
0.3738 	5.84807e-25
0.3745 	5.03124e-25
0.3752 	4.09327e-25
0.3759 	2.85245e-25
0.3766 	1.86777e-25
0.3773 	1.1392e-25
0.378 	5.70157e-26
0.3787 	4.75843e-27
0.3794 	9.48455e-28
0.3801 	8.42928e-28
0.3808 	6.02508e-28
0.3815 	4.25033e-28
0.3822 	3.60859e-28
0.3829 	2.24791e-28
0.3836 	4.67748e-29
0.3843 	8.15243e-30
0.385 	7.54741e-30
0.3857 	5.9562e-30
0.3864 	4.61165e-30
0.3871 	4.17147e-30
0.3878 	3.31075e-30
0.3885 	2.0099e-30
0.3892 	1.45407e-30
0.3899 	1.31214e-30
0.3906 	1.04794e-30
0.3913 	7.77548e-31
0.392 	6.91649e-31
0.3927 	5.59525e-31
0.3934 	3.3992e-31
0.3941 	2.20445e-31
0.3948 	2.011e-31
0.3955 	1.61321e-31
0.3962 	1.13368e-31
0.3969 	9.86175e-32
0.3976 	8.13123e-32
0.3983 	4.39287e-32
0.399 	1.94044e-32
0.3997 	1.80275e-32
0.4004 	1.48461e-32
0.4011 	1.03114e-32
0.4018 	8.56626e-33
0.4025 	7.42476e-33
0.4032 	3.81752e-33
0.4039 	9.75801e-34
0.4046 	9.41064e-34
0.4053 	8.14584e-34
0.406 	5.6578e-34
0.4067 	4.49235e-34
0.4074 	4.06166e-34
0.4081 	2.13483e-34
0.4088 	2.20355e-35
0.4095 	2.26128e-35
0.4102 	2.12187e-35
0.4109 	1.48965e-35
0.4116 	1.13307e-35
0.4123 	1.05213e-35
0.413 	6.069e-36
0.4137 	5.5386e-37
0.4144 	1.7864e-37
0.4151 	1.88225e-37
0.4158 	1.3423e-37
0.4165 	9.79077e-38
0.4172 	9.33942e-38
0.4179 	6.04434e-38
0.4186 	1.08814e-38
0.4193 	3.13371e-40
0.42 	3.80294e-40
0.4207 	2.75509e-40
0.4214 	1.92132e-40
0.4221 	1.87249e-40
0.4228 	1.35879e-40
0.4235 	3.58084e-41
0.4242 	8.502e-44
0.4249 	1.109e-43
0.4256 	8.75419e-44
0.4263 	5.81799e-44
0.427 	5.74563e-44
0.4277 	4.63165e-44
0.4284 	1.54429e-44
0.4291 	7.2256e-48
0.4298 	9.58325e-48
0.4305 	8.2389e-48
0.4312 	5.41373e-48
0.4319 	5.15664e-48
0.4326 	4.54832e-48
0.4333 	1.78011e-48
0.434 	6.07184e-52
0.4347 	8.17946e-52
0.4354 	7.65315e-52
0.4361 	5.15137e-52
0.4368 	4.57583e-52
0.4375 	4.38211e-52
0.4382 	1.9284e-52
0.4389 	5.08595e-56
0.4396 	6.95755e-56
0.4403 	7.07946e-56
0.441 	4.86845e-56
0.4417 	4.05103e-56
0.4424 	4.00782e-56
0.4431 	2.01507e-56
0.4438 	4.25816e-60
0.4445 	5.92227e-60
0.4452 	6.5513e-60
0.4459 	4.59262e-60
0.4466 	3.59455e-60
0.4473 	3.55709e-60
0.448 	2.06051e-60
0.4487 	1.37717e-61
0.4494 	5.0567e-64
0.4501 	6.08421e-64
0.4508 	4.33968e-64
0.4515 	3.20664e-64
0.4522 	3.17424e-64
0.4529 	2.08099e-64
0.4536 	3.67509e-65
0.4543 	4.33234e-68
0.455 	5.67673e-68
0.4557 	4.11309e-68
0.4564 	2.87856e-68
0.4571 	2.85073e-68
0.4578 	2.08619e-68
0.4585 	5.49218e-69
0.4592 	3.7164e-72
0.4599 	4.93726e-72
0.4606 	3.90482e-72
0.4613 	2.59571e-72
0.462 	2.57198e-72
0.4627 	2.07813e-72
0.4634 	6.9289e-73
0.4641 	3.18061e-76
0.4648 	4.28713e-76
0.4655 	3.69948e-76
0.4662 	2.43417e-76
0.4669 	2.32511e-76
0.4676 	2.05577e-76
0.4683 	8.04412e-77
0.469 	-2.83001e-79
0.4697 	-1.06436e-78
0.4704 	-9.55502e-79
0.4711 	-1.78981e-79
0.4718 	-1.34949e-80
0.4725 	-1.54985e-80
0.4732 	-3.08959e-80
0.4739 	-2.76458e-79
0.4746 	-1.36598e-78
0.4753 	-1.52297e-78
0.476 	-4.36592e-79
0.4767 	-4.91739e-80
0.4774 	-5.00594e-80
0.4781 	-5.42633e-80
0.4788 	-1.54894e-79
0.4795 	-1.50523e-78
0.4802 	-2.08474e-78
0.4809 	-7.37181e-79
0.4816 	-6.37759e-80
0.4823 	-6.45105e-80
0.483 	-6.75936e-80
0.4837 	-7.13633e-80
0.4844 	-1.50719e-78
0.4851 	-2.61178e-78
0.4858 	-1.06793e-78
0.4865 	-7.56501e-80
0.4872 	-7.61664e-80
0.4879 	-7.80355e-80
0.4886 	-8.06961e-80
0.4893 	-1.38423e-78
0.49 	-3.04254e-78
0.4907 	-1.38554e-78
0.4914 	-8.36748e-80
0.4921 	-8.39277e-80
0.4928 	-8.47061e-80
0.4935 	-8.60356e-80
0.4942 	-1.16596e-78
0.4949 	-2.8451e-78
0.4956 	-1.64604e-78
0.4963 	-8.71987e-80
0.497 	-8.71755e-80
0.4977 	-8.71381e-80
0.4984 	-8.70736e-80
0.4991 	-8.93301e-79
0.4998 	-2.50583e-78
0.5005 	-1.81437e-78
0.5012 	-2.01312e-79
0.5019 	-8.58451e-80
0.5026 	-8.53537e-80
0.5033 	-8.40104e-80
0.504 	-6.09463e-79
0.5047 	-2.08316e-78
0.5054 	-1.87189e-78
0.5061 	-3.9689e-79
0.5068 	-8.04528e-80
0.5075 	-7.9868e-80
0.5082 	-7.75111e-80
0.5089 	-3.51071e-79
0.5096 	-1.63635e-78
0.5103 	-1.81917e-78
0.511 	-5.32037e-79
0.5117 	-7.19698e-80
0.5124 	-7.13717e-80
0.5131 	-6.85575e-80
0.5138 	-1.42345e-79
0.5145 	-1.21464e-78
0.5152 	-1.67359e-78
0.5159 	-5.99145e-79
0.5166 	-6.16043e-80
0.5173 	-6.09559e-80
0.518 	-5.8253e-80
0.5187 	-5.4949e-80
0.5194 	-8.51076e-79
0.5201 	-1.46335e-78
0.5208 	-6.03531e-79
0.5215 	-5.05662e-80
0.5222 	-4.9932e-80
0.5229 	-4.76381e-80
0.5236 	-4.43728e-80
0.5243 	-5.61345e-79
0.525 	-1.2202e-78
0.5257 	-5.59288e-79
0.5264 	-3.98781e-80
0.5271 	-3.93049e-80
0.5278 	-3.75555e-80
0.5285 	-3.45718e-80
0.5292 	-3.46608e-79
0.5299 	-8.33658e-79
0.5306 	-4.84228e-79
0.5313 	-3.02687e-80
0.532 	-2.97833e-80
0.5327 	-2.85835e-80
0.5334 	-2.60277e-80
0.5341 	-1.98259e-79
0.5348 	-5.45279e-79
0.5355 	-3.95504e-79
0.5362 	-4.7011e-80
0.5369 	-2.17595e-80
0.5376 	-2.10309e-80
0.5383 	-1.89604e-80
0.539 	-1.02867e-79
0.5397 	-3.41535e-79
0.5404 	-3.06784e-79
0.5411 	-6.69699e-80
0.5418 	-1.53499e-80
0.5425 	-1.49772e-80
0.5432 	-1.3381e-80
0.5439 	-4.61273e-80
0.5446 	-2.04799e-79
0.5453 	-2.27101e-79
0.546 	-6.75792e-80
0.5467 	-1.04696e-80
0.5474 	-1.02547e-80
0.5481 	-9.1589e-81
0.5488 	-1.53593e-80
0.5495 	-1.1746e-79
0.5502 	-1.61045e-79
0.5509 	-5.834e-80
0.5516 	-6.91295e-81
0.5523 	-6.76319e-81
0.553 	-6.08616e-81
0.5537 	-5.25484e-81
0.5544 	-6.43143e-80
0.5551 	-1.09732e-79
0.5558 	-4.56529e-80
0.5565 	-4.42388e-81
0.5572 	-4.32352e-81
0.5579 	-3.92993e-81
0.5586 	-3.36467e-81
0.5593 	-3.3505e-80
0.56 	-7.20197e-80
0.5607 	-3.32345e-80
0.5614 	-2.74667e-81
0.5621 	-2.68186e-81
0.5628 	-2.46786e-81
0.5635 	-2.09728e-81
0.5642 	-1.65102e-80
0.5649 	-3.91364e-80
0.5656 	-2.2828e-80
0.5663 	-1.65615e-81
0.567 	-1.61572e-81
0.5677 	-1.50826e-81
0.5684 	-1.27354e-81
0.5691 	-7.61628e-81
0.5698 	-2.05366e-80
0.5705 	-1.49244e-80
0.5712 	-1.89924e-81
0.5719 	-9.46282e-82
0.5726 	-8.97735e-82
0.5733 	-7.53868e-82
0.574 	-3.22485e-81
0.5747 	-1.04026e-80
0.5754 	-9.34172e-81
0.5761 	-2.10179e-81
0.5768 	-5.39209e-82
0.5775 	-5.20727e-82
0.5782 	-4.35265e-82
0.5789 	-1.20007e-81
0.5796 	-5.08261e-81
0.5803 	-5.62195e-81
0.581 	-1.70371e-81
0.5817 	-2.99163e-82
0.5824 	-2.91078e-82
0.5831 	-2.45253e-82
0.5838 	-3.45667e-82
0.5845 	-2.39201e-81
0.5852 	-3.26332e-81
0.5859 	-1.19707e-81
0.5866 	-1.61726e-82
0.5873 	-1.57273e-82
0.588 	-1.34923e-82
0.5887 	-1.07336e-82
0.5894 	-1.0819e-81
0.5901 	-1.83155e-81
0.5908 	-7.69096e-82
0.5915 	-8.52439e-83
0.5922 	-8.2859e-83
0.5929 	-7.25022e-83
0.5936 	-5.74788e-83
0.5943 	-4.68584e-82
0.595 	-9.95908e-82
0.5957 	-4.62895e-82
0.5964 	-4.38346e-83
0.5971 	-4.25917e-83
0.5978 	-3.80696e-83
0.5985 	-3.01058e-83
0.5992 	-1.932e-82
0.5999 	-4.51329e-82
0.6006 	-2.64449e-82
0.6013 	-2.20028e-83
0.602 	-2.13718e-83
0.6027 	-1.95396e-83
0.6034 	-1.54272e-83
0.6041 	-7.50808e-83
0.6048 	-1.98501e-82
0.6055 	-1.44564e-82
0.6062 	-1.96833e-83
0.6069 	-1.04739e-83
0.6076 	-9.80623e-84
0.6083 	-7.73619e-84
0.609 	-2.7002e-83
0.6097 	-8.46732e-83
0.6104 	-7.60277e-83
0.6111 	-1.76446e-83
0.6118 	-5.01578e-84
0.6125 	-4.8137e-84
0.6132 	-3.79726e-84
0.6139 	-8.64463e-84
0.6146 	-3.49932e-83
0.6153 	-3.86121e-83
0.616 	-1.19248e-83
0.6167 	-2.34813e-84
0.6174 	-2.27715e-84
0.6181 	-1.8247e-84
0.6188 	-2.2133e-84
0.6195 	-1.39879e-83
0.6202 	-1.89892e-83
0.6209 	-7.05728e-84
0.6216 	-1.07501e-84
0.6223 	-1.04236e-84
0.623 	-8.58525e-85
0.6237 	-6.30477e-85
0.6244 	-5.39508e-84
0.6251 	-9.06251e-84
0.6258 	-3.84244e-84
0.6265 	-4.81463e-85
0.6272 	-4.66782e-85
0.6279 	-3.9557e-85
0.6286 	-2.91279e-85
0.6293 	-2.00045e-84
0.63 	-4.20421e-84
0.6307 	-1.96879e-84
0.6314 	-2.11023e-85
0.6321 	-2.04571e-85
0.6328 	-1.78517e-85
0.6335 	-1.31896e-85
0.6342 	-7.09018e-85
0.6349 	-1.63267e-84
0.6356 	-9.61155e-85
0.6363 	-9.05413e-86
0.637 	-8.77682e-86
0.6377 	-7.89173e-86
0.6384 	-5.85364e-86
0.6391 	-2.37932e-85
0.6398 	-6.17107e-85
0.6405 	-4.50446e-85
0.6412 	-6.54509e-86
0.6419 	-3.687e-86
0.6426 	-3.41764e-86
0.6433 	-2.54613e-86
0.644 	-7.43202e-86
0.6447 	-2.26814e-85
0.6454 	-2.03649e-85
0.6461 	-4.87404e-86
0.6468 	-1.51691e-86
0.6475 	-1.45008e-86
0.6482 	-1.08543e-86
0.6489 	-2.08669e-86
0.6496 	-8.0964e-86
0.6503 	-8.91289e-86
0.651 	-2.80511e-86
0.6517 	-6.11348e-87
0.6524 	-5.92009e-87
0.6531 	-4.53502e-87
0.6538 	-4.80619e-87
0.6545 	-2.80184e-86
0.6552 	-3.7855e-86
0.6559 	-1.42528e-86
0.6566 	-2.41363e-87
0.6573 	-2.33733e-87
0.658 	-1.85676e-87
0.6587 	-1.25805e-87
0.6594 	-9.3745e-87
0.6601 	-1.56292e-86
0.6608 	-6.69038e-87
0.6615 	-9.33537e-88
0.6622 	-9.04046e-88
0.6629 	-7.44877e-88
0.6636 	-5.0987e-88
0.6643 	-3.02084e-87
0.665 	-6.28073e-87
0.6657 	-2.96292e-87
0.6664 	-3.5369e-88
0.6671 	-3.42526e-88
0.6678 	-2.92723e-88
0.6685 	-2.02407e-88
0.6692 	-9.31952e-88
0.6699 	-2.11698e-87
0.6706 	-1.25199e-87
0.6713 	-1.3122e-88
0.672 	-1.27081e-88
0.6727 	-1.12637e-88
0.6734 	-7.86597e-89
0.6741 	-2.72617e-88
0.6748 	-6.94513e-88
0.6755 	-5.08049e-88
0.6762 	-7.82403e-89
0.6769 	-4.61456e-89
0.6776 	-4.24137e-89
0.6783 	-2.99031e-89
0.679 	-7.43589e-89
0.6797 	-2.21356e-88
0.6804 	-1.98738e-88
0.6811 	-4.89075e-89
0.6818 	-1.63817e-89
0.6825 	-1.56104e-89
0.6832 	-1.1104e-89
0.6839 	-1.82846e-89
0.6846 	-6.83185e-89
0.6853 	-7.50408e-89
0.686 	-2.4014e-89
0.6867 	-5.67066e-90
0.6874 	-5.48437e-90
0.6881 	-4.00978e-90
0.6888 	-3.71013e-90
0.6895 	-2.02055e-89
0.6902 	-2.71771e-89
0.6909 	-1.0339e-89
0.6916 	-1.88772e-90
0.6923 	-1.82321e-90
0.693 	-1.37696e-90
0.6937 	-8.19211e-91
0.6944 	-5.3966e-90
0.6951 	-8.93114e-90
0.6958 	-3.83834e-90
0.6965 	-5.56723e-91
0.6972 	-5.35181e-91
0.6979 	-4.10369e-91
0.6986 	-2.25194e-91
0.6993 	-1.96435e-91
0.7 	-2.10337e-91
