0 	1
0.0007 	1
0.0014 	1
0.0021 	1
0.0028 	1
0.0035 	1
0.0042 	1
0.0049 	1
0.0056 	1
0.0063 	1
0.007 	1
0.0077 	1
0.0084 	1
0.0091 	1
0.0098 	1
0.0105 	1
0.0112 	1
0.0119 	1
0.0126 	1
0.0133 	1
0.014 	1
0.0147 	1
0.0154 	1
0.0161 	1
0.0168 	1
0.0175 	1
0.0182 	1
0.0189 	1
0.0196 	1
0.0203 	1
0.021 	1
0.0217 	1
0.0224 	1
0.0231 	1
0.0238 	1
0.0245 	1
0.0252 	1
0.0259 	1
0.0266 	1
0.0273 	1
0.028 	1
0.0287 	1
0.0294 	1
0.0301 	1
0.0308 	1
0.0315 	1
0.0322 	1
0.0329 	1
0.0336 	1
0.0343 	1
0.035 	1
0.0357 	1
0.0364 	1
0.0371 	1
0.0378 	1
0.0385 	1
0.0392 	1
0.0399 	1
0.0406 	1
0.0413 	1
0.042 	1
0.0427 	1
0.0434 	1
0.0441 	1
0.0448 	1
0.0455 	1
0.0462 	1
0.0469 	1
0.0476 	1
0.0483 	1
0.049 	1
0.0497 	1
0.0504 	1
0.0511 	1
0.0518 	1
0.0525 	1
0.0532 	1
0.0539 	1
0.0546 	1
0.0553 	1
0.056 	1
0.0567 	1
0.0574 	1
0.0581 	1
0.0588 	1
0.0595 	1
0.0602 	1
0.0609 	1
0.0616 	1
0.0623 	1
0.063 	1
0.0637 	1
0.0644 	1
0.0651 	1
0.0658 	1
0.0665 	1
0.0672 	1
0.0679 	1
0.0686 	1
0.0693 	1
0.07 	1
0.0707 	1
0.0714 	1
0.0721 	1
0.0728 	1
0.0735 	1
0.0742 	1
0.0749 	1
0.0756 	1
0.0763 	1
0.077 	1
0.0777 	1
0.0784 	1
0.0791 	1
0.0798 	1
0.0805 	1
0.0812 	1
0.0819 	1
0.0826 	1
0.0833 	1
0.084 	1
0.0847 	1
0.0854 	1
0.0861 	1
0.0868 	1
0.0875 	1
0.0882 	1
0.0889 	1
0.0896 	1
0.0903 	1
0.091 	1
0.0917 	1
0.0924 	1
0.0931 	1
0.0938 	1
0.0945 	1
0.0952 	1
0.0959 	1
0.0966 	1
0.0973 	1
0.098 	1
0.0987 	1
0.0994 	1
0.1001 	1
0.1008 	1
0.1015 	1
0.1022 	1
0.1029 	1
0.1036 	1
0.1043 	1
0.105 	1
0.1057 	1
0.1064 	1
0.1071 	1
0.1078 	1
0.1085 	1
0.1092 	1
0.1099 	1
0.1106 	1
0.1113 	1
0.112 	1
0.1127 	1
0.1134 	1
0.1141 	1
0.1148 	1
0.1155 	1
0.1162 	1
0.1169 	1
0.1176 	1
0.1183 	1
0.119 	1
0.1197 	1
0.1204 	1
0.1211 	1
0.1218 	1
0.1225 	1
0.1232 	1
0.1239 	1
0.1246 	1
0.1253 	1
0.126 	1
0.1267 	1
0.1274 	1
0.1281 	1
0.1288 	1
0.1295 	1
0.1302 	1
0.1309 	1
0.1316 	1
0.1323 	1
0.133 	1
0.1337 	1
0.1344 	1
0.1351 	1
0.1358 	1
0.1365 	1
0.1372 	1
0.1379 	1
0.1386 	1
0.1393 	1
0.14 	1
0.1407 	1
0.1414 	1
0.1421 	1
0.1428 	1
0.1435 	1
0.1442 	1
0.1449 	1
0.1456 	1
0.1463 	1
0.147 	1
0.1477 	1
0.1484 	1
0.1491 	1
0.1498 	1
0.1505 	1
0.1512 	1
0.1519 	1
0.1526 	1
0.1533 	1
0.154 	1
0.1547 	1
0.1554 	1
0.1561 	1
0.1568 	1
0.1575 	1
0.1582 	1
0.1589 	1
0.1596 	1
0.1603 	1
0.161 	1
0.1617 	1
0.1624 	1
0.1631 	1
0.1638 	1
0.1645 	1
0.1652 	1
0.1659 	1
0.1666 	1
0.1673 	1
0.168 	1
0.1687 	1
0.1694 	1
0.1701 	1
0.1708 	1
0.1715 	1
0.1722 	1
0.1729 	1
0.1736 	1
0.1743 	1
0.175 	1
0.1757 	1
0.1764 	1
0.1771 	1
0.1778 	1
0.1785 	1
0.1792 	1
0.1799 	1
0.1806 	1
0.1813 	1
0.182 	1
0.1827 	1
0.1834 	1
0.1841 	1
0.1848 	1
0.1855 	1
0.1862 	1
0.1869 	1
0.1876 	1
0.1883 	1
0.189 	1
0.1897 	1
0.1904 	1
0.1911 	1
0.1918 	1
0.1925 	1
0.1932 	1
0.1939 	1
0.1946 	1
0.1953 	1
0.196 	1
0.1967 	1
0.1974 	1
0.1981 	1
0.1988 	1
0.1995 	1
0.2002 	1
0.2009 	1
0.2016 	1
0.2023 	1
0.203 	1
0.2037 	1
0.2044 	1
0.2051 	1
0.2058 	1
0.2065 	1
0.2072 	1
0.2079 	1
0.2086 	1
0.2093 	1
0.21 	1
0.2107 	1
0.2114 	1
0.2121 	1
0.2128 	1
0.2135 	1
0.2142 	1
0.2149 	1
0.2156 	1
0.2163 	1
0.217 	1
0.2177 	1
0.2184 	1
0.2191 	1
0.2198 	1
0.2205 	1
0.2212 	1
0.2219 	1
0.2226 	1
0.2233 	1
0.224 	1
0.2247 	1
0.2254 	1
0.2261 	1
0.2268 	1
0.2275 	1
0.2282 	1
0.2289 	1
0.2296 	1
0.2303 	1
0.231 	1
0.2317 	1
0.2324 	1
0.2331 	1
0.2338 	1
0.2345 	1
0.2352 	1
0.2359 	1
0.2366 	1
0.2373 	1
0.238 	1
0.2387 	1
0.2394 	1
0.2401 	1
0.2408 	1
0.2415 	1
0.2422 	1
0.2429 	1
0.2436 	1
0.2443 	1
0.245 	1
0.2457 	1
0.2464 	1
0.2471 	1
0.2478 	1
0.2485 	1
0.2492 	1
0.2499 	1
0.2506 	1
0.2513 	1
0.252 	1
0.2527 	1
0.2534 	1
0.2541 	1
0.2548 	1
0.2555 	1
0.2562 	1
0.2569 	1
0.2576 	1
0.2583 	1
0.259 	1
0.2597 	1
0.2604 	1
0.2611 	1
0.2618 	1
0.2625 	1
0.2632 	1
0.2639 	1
0.2646 	1
0.2653 	1
0.266 	1
0.2667 	1
0.2674 	1
0.2681 	1
0.2688 	1
0.2695 	1
0.2702 	1
0.2709 	1
0.2716 	0.999999
0.2723 	0.999999
0.273 	0.999999
0.2737 	0.999999
0.2744 	0.999998
0.2751 	0.999997
0.2758 	0.999997
0.2765 	0.999994
0.2772 	0.999987
0.2779 	0.999983
0.2786 	0.999979
0.2793 	0.999971
0.28 	0.99996
0.2807 	0.999951
0.2814 	0.999924
0.2821 	0.99983
0.2828 	0.999768
0.2835 	0.999706
0.2842 	0.999589
0.2849 	0.999442
0.2856 	0.999303
0.2863 	0.999045
0.287 	0.997246
0.2877 	0.996005
0.2884 	0.994831
0.2891 	0.992828
0.2898 	0.989995
0.2905 	0.987363
0.2912 	0.984811
0.2919 	0.958216
0.2926 	0.934104
0.2933 	0.911449
0.294 	0.879553
0.2947 	0.831023
0.2954 	0.782765
0.2961 	0.73471
0.2968 	0.675671
0.2975 	0.614567
0.2982 	0.554074
0.2989 	0.490586
0.2996 	0.416116
0.3003 	0.341584
0.301 	0.266969
0.3017 	0.213778
0.3024 	0.169861
0.3031 	0.122856
0.3038 	0.0782309
0.3045 	0.064533
0.3052 	0.0507247
0.3059 	0.0366404
0.3066 	0.0265183
0.3073 	0.0196744
0.308 	0.011346
0.3087 	0.00301758
0.3094 	0.00204182
0.3101 	0.00162566
0.3108 	0.00117396
0.3115 	0.000822048
0.3122 	0.000631219
0.3129 	0.000350572
0.3136 	6.99241e-05
0.3143 	8.59624e-06
0.315 	7.08045e-06
0.3157 	5.20035e-06
0.3164 	3.5869e-06
0.3171 	2.93485e-06
0.3178 	1.69141e-06
0.3185 	4.47977e-07
0.3192 	3.5633e-09
0.3199 	3.0374e-09
0.3206 	2.29751e-09
0.3213 	1.5608e-09
0.322 	1.32904e-09
0.3227 	8.22499e-10
0.3234 	2.79371e-10
0.3241 	7.81076e-12
0.3248 	7.81102e-12
0.3255 	7.81092e-12
0.3262 	7.81067e-12
0.3269 	7.81773e-12
0.3276 	7.82756e-12
0.3283 	7.83817e-12
0.329 	7.85163e-12
0.3297 	7.87023e-12
0.3304 	7.88846e-12
0.3311 	7.90641e-12
0.3318 	7.91237e-12
0.3325 	7.91814e-12
0.3332 	7.92603e-12
0.3339 	7.93069e-12
0.3346 	7.92352e-12
0.3353 	7.91586e-12
0.336 	7.90753e-12
0.3367 	7.88302e-12
0.3374 	7.85225e-12
0.3381 	7.82481e-12
0.3388 	7.7956e-12
0.3395 	7.74336e-12
0.3402 	7.69092e-12
0.3409 	7.63801e-12
0.3416 	7.55997e-12
0.3423 	7.45987e-12
0.343 	7.36678e-12
0.3437 	7.27368e-12
0.3444 	7.13448e-12
0.3451 	6.9918e-12
0.3458 	6.84947e-12
0.3465 	6.68483e-12
0.3472 	6.48185e-12
0.3479 	6.2884e-12
0.3486 	6.09495e-12
0.3493 	5.85285e-12
0.35 	5.59749e-12
0.3507 	5.34393e-12
0.3514 	5.08332e-12
0.3521 	4.79696e-12
0.3528 	4.51511e-12
0.3535 	4.23326e-12
0.3542 	3.93029e-12
0.3549 	3.61559e-12
0.3556 	3.30287e-12
0.3563 	2.99346e-12
0.357 	2.72272e-12
0.3577 	2.44333e-12
0.3584 	2.16268e-12
0.3591 	1.90252e-12
0.3598 	1.66285e-12
0.3605 	1.42387e-12
0.3612 	1.18517e-12
0.3619 	1.02449e-12
0.3626 	8.56964e-13
0.3633 	6.84652e-13
0.364 	5.42059e-13
0.3647 	4.52959e-13
0.3654 	3.63608e-13
0.3661 	2.74068e-13
0.3668 	2.19411e-13
0.3675 	1.68065e-13
0.3682 	1.12305e-13
0.3689 	6.59766e-14
0.3696 	5.42277e-14
0.3703 	4.23136e-14
0.371 	3.01794e-14
0.3717 	2.25673e-14
0.3724 	1.64763e-14
0.3731 	9.1247e-15
0.3738 	2.27095e-15
0.3745 	1.88831e-15
0.3752 	1.49257e-15
0.3759 	1.06409e-15
0.3766 	7.73188e-16
0.3773 	5.83979e-16
0.378 	3.09412e-16
0.3787 	3.4846e-17
0.3794 	1.32167e-17
0.3801 	1.09355e-17
0.3808 	8.01259e-18
0.3815 	5.81267e-18
0.3822 	4.74237e-18
0.3829 	2.71245e-18
0.3836 	6.82535e-19
0.3843 	2.27257e-19
0.385 	2.01413e-19
0.3857 	1.73537e-19
0.3864 	1.47195e-19
0.3871 	1.26505e-19
0.3878 	1.09799e-19
0.3885 	9.30927e-20
0.3892 	8.0943e-20
0.3899 	7.13246e-20
0.3906 	6.16314e-20
0.3913 	5.20161e-20
0.392 	4.3576e-20
0.3927 	3.74573e-20
0.3934 	3.17056e-20
0.3941 	2.6582e-20
0.3948 	2.20866e-20
0.3955 	1.78021e-20
0.3962 	1.3602e-20
0.3969 	1.06015e-20
0.3976 	8.22163e-21
0.3983 	6.04783e-21
0.399 	4.33283e-21
0.3997 	3.44365e-21
0.4004 	2.61564e-21
0.4011 	1.83352e-21
0.4018 	1.32743e-21
0.4025 	9.18377e-22
0.4032 	5.25372e-22
0.4039 	2.07149e-22
0.4046 	1.63118e-22
0.4053 	1.21918e-22
0.406 	8.44906e-23
0.4067 	6.02882e-23
0.4074 	4.17589e-23
0.4081 	2.10223e-23
0.4088 	1.74356e-24
0.4095 	1.41557e-24
0.4102 	1.09097e-24
0.4109 	7.74831e-25
0.4116 	5.61264e-25
0.4123 	4.23643e-25
0.413 	2.19948e-25
0.4137 	1.62538e-26
0.4144 	1.49872e-27
0.4151 	1.25955e-27
0.4158 	9.19528e-28
0.4165 	6.70789e-28
0.4172 	5.62106e-28
0.4179 	3.08318e-28
0.4186 	5.45296e-29
0.4193 	1.43507e-31
0.42 	1.38258e-31
0.4207 	1.03217e-31
0.4214 	7.44607e-32
0.4221 	6.87463e-32
0.4228 	3.95955e-32
0.4235 	1.04244e-32
0.4242 	6.18063e-36
0.4249 	5.97765e-36
0.4256 	4.65645e-36
0.4263 	3.23907e-36
0.427 	2.99409e-36
0.4277 	1.88446e-36
0.4284 	6.28339e-37
0.4291 	2.80082e-40
0.4298 	2.68264e-40
0.4305 	2.16781e-40
0.4312 	1.49433e-40
0.4319 	1.33592e-40
0.4326 	9.08837e-41
0.4333 	3.56541e-41
0.434 	1.3916e-43
0.4347 	1.09985e-43
0.4354 	8.19885e-44
0.4361 	5.48763e-44
0.4368 	3.6869e-44
0.4375 	2.32577e-44
0.4382 	1.11062e-44
0.4389 	1.48374e-45
0.4396 	1.13439e-45
0.4403 	8.20848e-46
0.441 	5.55042e-46
0.4417 	3.53577e-46
0.4424 	2.13271e-46
0.4431 	1.07597e-46
0.4438 	9.29555e-48
0.4445 	6.82789e-48
0.4452 	4.65599e-48
0.4459 	3.22346e-48
0.4466 	2.10063e-48
0.4473 	1.33611e-48
0.448 	6.97044e-49
0.4487 	5.79741e-50
0.4494 	9.03374e-51
0.4501 	5.75385e-51
0.4508 	4.08657e-51
0.4515 	2.71641e-51
0.4522 	1.87937e-51
0.4529 	1.03148e-51
0.4536 	1.83592e-52
0.4543 	1.45836e-54
0.455 	8.90288e-55
0.4557 	6.44802e-55
0.4564 	4.27487e-55
0.4571 	3.13462e-55
0.4578 	1.80616e-55
0.4585 	4.76093e-56
0.4592 	8.70187e-59
0.4599 	5.51931e-59
0.4606 	3.86745e-59
0.4613 	2.52431e-59
0.462 	1.87796e-59
0.4627 	1.1372e-59
0.4634 	3.79469e-60
0.4641 	5.18409e-63
0.4648 	3.39324e-63
0.4655 	2.3142e-63
0.4662 	1.51988e-63
0.4669 	1.12411e-63
0.4676 	7.1136e-64
0.4683 	2.78567e-64
0.469 	3.08646e-67
0.4697 	2.07418e-67
0.4704 	1.38217e-67
0.4711 	9.30364e-68
0.4718 	6.71783e-68
0.4725 	4.42489e-68
0.4732 	1.94803e-68
0.4739 	1.80988e-71
0.4746 	1.24438e-71
0.4753 	8.12602e-72
0.476 	5.59108e-72
0.4767 	3.94934e-72
0.4774 	2.69846e-72
0.4781 	1.2998e-72
0.4788 	9.565e-76
0.4795 	-3.55551e-76
0.4802 	-1.04503e-75
0.4809 	-1.78073e-76
0.4816 	2.23953e-76
0.4823 	1.57134e-76
0.483 	7.98428e-77
0.4837 	2.55122e-78
0.4844 	-2.94162e-75
0.4851 	-5.20258e-75
0.4858 	-2.04115e-75
0.4865 	-9.69849e-78
0.4872 	-1.20245e-77
0.4879 	-1.32716e-77
0.4886 	-1.45187e-77
0.4893 	-4.35828e-75
0.49 	-9.88634e-75
0.4907 	-4.36172e-75
0.4914 	-2.14793e-77
0.4921 	-2.38874e-77
0.4928 	-2.51642e-77
0.4935 	-2.64236e-77
0.4942 	-5.09848e-75
0.4949 	-1.29876e-74
0.4956 	-7.35535e-75
0.4963 	-3.30046e-77
0.497 	-3.53523e-77
0.4977 	-3.67169e-77
0.4984 	-3.7896e-77
0.4991 	-5.06947e-75
0.4998 	-1.51314e-74
0.5005 	-1.08213e-74
0.5012 	-7.62422e-76
0.5019 	-4.59133e-77
0.5026 	-4.72553e-77
0.5033 	-4.82691e-77
0.504 	-4.26415e-75
0.5047 	-1.60667e-74
0.5054 	-1.4382e-74
0.5061 	-2.58193e-75
0.5068 	-5.46484e-77
0.5075 	-5.57816e-77
0.5082 	-5.65234e-77
0.5089 	-2.82185e-75
0.5096 	-1.57238e-74
0.5103 	-1.75676e-74
0.511 	-4.66726e-75
0.5117 	-6.06542e-77
0.5124 	-6.1385e-77
0.5131 	-6.1778e-77
0.5138 	-1.00885e-75
0.5145 	-1.42623e-74
0.5152 	-1.99425e-74
0.5159 	-6.68964e-75
0.5166 	-6.33982e-77
0.5173 	-6.35874e-77
0.518 	-6.36112e-77
0.5187 	-6.3635e-77
0.5194 	-1.20185e-74
0.5201 	-2.12145e-74
0.5208 	-8.33964e-75
0.5215 	-6.28584e-77
0.5222 	-6.2456e-77
0.5229 	-6.21483e-77
0.5236 	-6.18407e-77
0.5243 	-9.40309e-75
0.525 	-2.1292e-74
0.5257 	-9.40188e-75
0.5264 	-5.94764e-77
0.5271 	-5.85326e-77
0.5278 	-5.7965e-77
0.5285 	-5.74054e-77
0.5292 	-6.79748e-75
0.5299 	-1.72823e-74
0.5306 	-9.79163e-75
0.5313 	-5.39962e-77
0.532 	-5.27025e-77
0.5327 	-5.18932e-77
0.5334 	-5.1179e-77
0.5341 	-4.4841e-75
0.5348 	-1.33506e-74
0.5355 	-9.54919e-75
0.5362 	-6.80609e-76
0.5369 	-4.57999e-77
0.5376 	-4.48117e-77
0.5383 	-4.40363e-77
0.539 	-2.62058e-75
0.5397 	-9.83623e-75
0.5404 	-8.8042e-75
0.5411 	-1.5864e-75
0.5418 	-3.8579e-77
0.5425 	-3.74865e-77
0.5432 	-3.67249e-77
0.5439 	-1.25086e-75
0.5446 	-6.91956e-75
0.5453 	-7.7285e-75
0.546 	-2.05777e-75
0.5467 	-3.16136e-77
0.5474 	-3.04869e-77
0.5481 	-2.97897e-77
0.5488 	-3.37036e-76
0.5495 	-4.6474e-75
0.5502 	-6.49418e-75
0.5509 	-2.182e-75
0.5516 	-2.5276e-77
0.5523 	-2.41709e-77
0.553 	-2.35657e-77
0.5537 	-2.29606e-77
0.5544 	-2.97496e-75
0.5551 	-5.24553e-75
0.5558 	-2.06487e-75
0.5565 	-1.97587e-77
0.5572 	-1.87141e-77
0.5579 	-1.82104e-77
0.5586 	-1.77067e-77
0.5593 	-1.80772e-75
0.56 	-4.08606e-75
0.5607 	-1.80644e-75
0.5614 	-1.51198e-77
0.5621 	-1.41748e-77
0.5628 	-1.37562e-77
0.5635 	-1.33512e-77
0.5642 	-1.03453e-75
0.5649 	-2.62326e-75
0.5656 	-1.48758e-75
0.5663 	-1.13311e-77
0.567 	-1.05534e-77
0.5677 	-1.01597e-77
0.5684 	-9.84372e-78
0.5691 	-5.49245e-76
0.5698 	-1.62836e-75
0.5705 	-1.16531e-75
0.5712 	-8.54059e-77
0.5719 	-7.69412e-78
0.5726 	-7.33513e-78
0.5733 	-7.09534e-78
0.574 	-2.62139e-76
0.5747 	-9.76689e-76
0.5754 	-8.74267e-76
0.5761 	-1.59117e-76
0.5768 	-5.49246e-78
0.5775 	-5.17592e-78
0.5782 	-4.99867e-78
0.5789 	-1.03765e-76
0.5796 	-5.65321e-76
0.5803 	-6.31068e-76
0.581 	-1.69071e-76
0.5817 	-3.83817e-78
0.5824 	-3.56881e-78
0.5831 	-3.4411e-78
0.5838 	-2.41077e-77
0.5845 	-3.15092e-76
0.5852 	-4.3971e-76
0.5859 	-1.48408e-76
0.5866 	-2.62498e-78
0.5873 	-2.40403e-78
0.588 	-2.31432e-78
0.5887 	-2.22462e-78
0.5894 	-1.68555e-76
0.5901 	-2.96474e-76
0.5908 	-1.17122e-76
0.5915 	-1.75663e-78
0.5922 	-1.58198e-78
0.5929 	-1.52055e-78
0.5936 	-1.45911e-78
0.5943 	-8.6088e-77
0.595 	-1.93814e-76
0.5957 	-8.59378e-77
0.5964 	-1.1501e-78
0.5971 	-1.01953e-78
0.5978 	-9.7598e-79
0.5985 	-9.34963e-79
0.5992 	-4.16235e-77
0.5999 	-1.0494e-76
0.6006 	-5.96286e-77
0.6013 	-7.36659e-79
0.602 	-6.49211e-79
0.6027 	-6.1209e-79
0.6034 	-5.85386e-79
0.6041 	-1.8766e-77
0.6048 	-5.51539e-77
0.6055 	-3.95133e-77
0.6062 	-3.06123e-78
0.6069 	-4.04711e-79
0.6076 	-3.75177e-79
0.6083 	-3.58223e-79
0.609 	-7.65392e-78
0.6097 	-2.81123e-77
0.6104 	-2.51666e-77
0.6111 	-4.66791e-78
0.6118 	-2.4703e-79
0.6125 	-2.2483e-79
0.6132 	-2.14329e-79
0.6139 	-2.61868e-78
0.6146 	-1.38774e-77
0.6153 	-1.54752e-77
0.616 	-4.19176e-78
0.6167 	-1.47671e-79
0.6174 	-1.3178e-79
0.6181 	-1.25433e-79
0.6188 	-5.52985e-79
0.6195 	-6.62113e-78
0.6202 	-9.21755e-78
0.6209 	-3.13461e-78
0.6216 	-8.64767e-80
0.6223 	-7.55824e-80
0.623 	-7.1836e-80
0.6237 	-6.80896e-80
0.6244 	-3.04381e-78
0.6251 	-5.3318e-78
0.6258 	-2.11826e-78
0.6265 	-4.96238e-80
0.6272 	-4.24398e-80
0.6279 	-4.02796e-80
0.6286 	-3.81193e-80
0.6293 	-1.34167e-78
0.63 	-3.00131e-78
0.6307 	-1.33674e-78
0.6314 	-2.7913e-80
0.6321 	-2.344e-80
0.6328 	-2.21233e-80
0.6335 	-2.09057e-80
0.6342 	-5.62488e-79
0.6349 	-1.40562e-78
0.6356 	-8.01032e-79
0.6363 	-1.53955e-80
0.637 	-1.28966e-80
0.6377 	-1.19083e-80
0.6384 	-1.1237e-80
0.6391 	-2.21118e-79
0.6398 	-6.41551e-79
0.6405 	-4.60297e-79
0.6412 	-3.83689e-80
0.6419 	-6.96422e-81
0.6426 	-6.28465e-81
0.6433 	-5.92246e-81
0.644 	-7.92217e-80
0.6447 	-2.85111e-79
0.6454 	-2.55242e-79
0.6461 	-4.8555e-80
0.6468 	-3.69203e-81
0.6475 	-3.25342e-81
0.6482 	-3.06207e-81
0.6489 	-2.41399e-80
0.6496 	-1.23205e-79
0.6503 	-1.37178e-79
0.651 	-3.76964e-80
0.6517 	-1.92206e-81
0.6524 	-1.65276e-81
0.6531 	-1.55371e-81
0.6538 	-4.80847e-81
0.6545 	-5.16623e-80
0.6552 	-7.16816e-80
0.6559 	-2.46143e-80
0.6566 	-9.82857e-82
0.6573 	-8.24249e-82
0.658 	-7.73995e-82
0.6587 	-7.23741e-82
0.6594 	-2.09554e-80
0.6601 	-3.65057e-80
0.6608 	-1.46068e-80
0.6615 	-4.93793e-82
0.6622 	-4.03693e-82
0.6629 	-3.78689e-82
0.6636 	-3.53684e-82
0.6643 	-8.1825e-81
0.665 	-1.81533e-80
0.6657 	-8.12977e-81
0.6664 	-2.43801e-82
0.6671 	-1.9538e-82
0.6678 	-1.82035e-82
0.6685 	-1.69828e-82
0.6692 	-3.05161e-81
0.6699 	-7.54115e-81
0.6706 	-4.31251e-81
0.6713 	-1.18323e-82
0.672 	-9.49116e-83
0.6727 	-8.60004e-83
0.6734 	-8.0152e-83
0.6741 	-1.07224e-81
0.6748 	-3.06228e-81
0.6755 	-2.20078e-81
0.6762 	-1.98675e-82
0.6769 	-4.53497e-83
0.6776 	-3.99456e-83
0.6783 	-3.71942e-83
0.679 	-3.45656e-82
0.6797 	-1.2143e-81
0.6804 	-1.087e-81
0.6811 	-2.1273e-82
0.6818 	-2.1318e-83
0.6825 	-1.82482e-83
0.6832 	-1.69768e-83
0.6839 	-9.60152e-83
0.6846 	-4.69522e-82
0.6853 	-5.21778e-82
0.686 	-1.457e-82
0.6867 	-9.8622e-84
0.6874 	-8.20276e-84
0.6881 	-7.62553e-84
0.6888 	-1.83953e-83
0.6895 	-1.76675e-82
0.6902 	-2.44179e-82
0.6909 	-8.47439e-83
0.6916 	-4.49256e-84
0.6923 	-3.63095e-84
0.693 	-3.37336e-84
0.6937 	-3.11577e-84
0.6944 	-6.45231e-83
0.6951 	-1.11701e-82
0.6958 	-4.50395e-83
0.6965 	-2.06851e-84
0.6972 	-1.76771e-84
0.6979 	-1.68887e-84
0.6986 	-1.61004e-84
0.6993 	-3.21545e-83
0.7 	-7.10508e-83
