0 	1
0.0007 	1
0.0014 	1
0.0021 	1
0.0028 	1
0.0035 	1
0.0042 	1
0.0049 	1
0.0056 	1
0.0063 	1
0.007 	1
0.0077 	1
0.0084 	1
0.0091 	1
0.0098 	1
0.0105 	1
0.0112 	1
0.0119 	1
0.0126 	1
0.0133 	1
0.014 	1
0.0147 	1
0.0154 	1
0.0161 	1
0.0168 	1
0.0175 	1
0.0182 	1
0.0189 	1
0.0196 	1
0.0203 	1
0.021 	1
0.0217 	1
0.0224 	1
0.0231 	1
0.0238 	1
0.0245 	1
0.0252 	1
0.0259 	1
0.0266 	1
0.0273 	1
0.028 	1
0.0287 	1
0.0294 	1
0.0301 	1
0.0308 	1
0.0315 	1
0.0322 	1
0.0329 	1
0.0336 	1
0.0343 	1
0.035 	1
0.0357 	1
0.0364 	1
0.0371 	1
0.0378 	1
0.0385 	1
0.0392 	1
0.0399 	1
0.0406 	1
0.0413 	1
0.042 	1
0.0427 	1
0.0434 	1
0.0441 	1
0.0448 	1
0.0455 	1
0.0462 	1
0.0469 	1
0.0476 	1
0.0483 	1
0.049 	1
0.0497 	1
0.0504 	1
0.0511 	1
0.0518 	1
0.0525 	1
0.0532 	1
0.0539 	1
0.0546 	1
0.0553 	1
0.056 	1
0.0567 	1
0.0574 	1
0.0581 	1
0.0588 	1
0.0595 	1
0.0602 	1
0.0609 	1
0.0616 	1
0.0623 	1
0.063 	1
0.0637 	1
0.0644 	1
0.0651 	1
0.0658 	1
0.0665 	1
0.0672 	1
0.0679 	1
0.0686 	1
0.0693 	1
0.07 	1
0.0707 	1
0.0714 	1
0.0721 	1
0.0728 	1
0.0735 	1
0.0742 	1
0.0749 	1
0.0756 	1
0.0763 	1
0.077 	1
0.0777 	1
0.0784 	1
0.0791 	1
0.0798 	1
0.0805 	1
0.0812 	1
0.0819 	1
0.0826 	1
0.0833 	1
0.084 	1
0.0847 	1
0.0854 	1
0.0861 	1
0.0868 	1
0.0875 	1
0.0882 	1
0.0889 	1
0.0896 	1
0.0903 	1
0.091 	1
0.0917 	1
0.0924 	1
0.0931 	1
0.0938 	1
0.0945 	1
0.0952 	1
0.0959 	1
0.0966 	1
0.0973 	1
0.098 	1
0.0987 	1
0.0994 	1
0.1001 	1
0.1008 	1
0.1015 	1
0.1022 	1
0.1029 	1
0.1036 	1
0.1043 	1
0.105 	1
0.1057 	1
0.1064 	1
0.1071 	1
0.1078 	1
0.1085 	1
0.1092 	1
0.1099 	1
0.1106 	1
0.1113 	1
0.112 	1
0.1127 	1
0.1134 	1
0.1141 	1
0.1148 	1
0.1155 	1
0.1162 	1
0.1169 	1
0.1176 	1
0.1183 	1
0.119 	1
0.1197 	1
0.1204 	1
0.1211 	1
0.1218 	1
0.1225 	1
0.1232 	1
0.1239 	1
0.1246 	1
0.1253 	1
0.126 	1
0.1267 	1
0.1274 	1
0.1281 	1
0.1288 	1
0.1295 	1
0.1302 	1
0.1309 	1
0.1316 	1
0.1323 	1
0.133 	1
0.1337 	1
0.1344 	1
0.1351 	1
0.1358 	1
0.1365 	1
0.1372 	1
0.1379 	1
0.1386 	1
0.1393 	1
0.14 	1
0.1407 	1
0.1414 	1
0.1421 	1
0.1428 	1
0.1435 	1
0.1442 	1
0.1449 	1
0.1456 	1
0.1463 	1
0.147 	1
0.1477 	1
0.1484 	1
0.1491 	1
0.1498 	1
0.1505 	1
0.1512 	1
0.1519 	1
0.1526 	1
0.1533 	1
0.154 	1
0.1547 	1
0.1554 	1
0.1561 	1
0.1568 	1
0.1575 	1
0.1582 	1
0.1589 	1
0.1596 	1
0.1603 	1
0.161 	1
0.1617 	1
0.1624 	1
0.1631 	1
0.1638 	1
0.1645 	1
0.1652 	1
0.1659 	1
0.1666 	1
0.1673 	1
0.168 	1
0.1687 	1
0.1694 	1
0.1701 	1
0.1708 	1
0.1715 	1
0.1722 	1
0.1729 	1
0.1736 	1
0.1743 	1
0.175 	1
0.1757 	1
0.1764 	1
0.1771 	1
0.1778 	1
0.1785 	1
0.1792 	1
0.1799 	1
0.1806 	1
0.1813 	1
0.182 	1
0.1827 	1
0.1834 	1
0.1841 	1
0.1848 	1
0.1855 	1
0.1862 	1
0.1869 	1
0.1876 	1
0.1883 	1
0.189 	1
0.1897 	1
0.1904 	1
0.1911 	1
0.1918 	1
0.1925 	1
0.1932 	1
0.1939 	1
0.1946 	1
0.1953 	1
0.196 	1
0.1967 	1
0.1974 	1
0.1981 	1
0.1988 	1
0.1995 	1
0.2002 	1
0.2009 	1
0.2016 	1
0.2023 	1
0.203 	1
0.2037 	1
0.2044 	1
0.2051 	1
0.2058 	1
0.2065 	1
0.2072 	1
0.2079 	1
0.2086 	1
0.2093 	1
0.21 	1
0.2107 	1
0.2114 	1
0.2121 	1
0.2128 	1
0.2135 	1
0.2142 	1
0.2149 	1
0.2156 	1
0.2163 	1
0.217 	1
0.2177 	1
0.2184 	1
0.2191 	1
0.2198 	1
0.2205 	1
0.2212 	1
0.2219 	1
0.2226 	1
0.2233 	1
0.224 	1
0.2247 	1
0.2254 	1
0.2261 	1
0.2268 	1
0.2275 	1
0.2282 	1
0.2289 	1
0.2296 	1
0.2303 	1
0.231 	1
0.2317 	1
0.2324 	1
0.2331 	1
0.2338 	1
0.2345 	1
0.2352 	1
0.2359 	1
0.2366 	1
0.2373 	1
0.238 	1
0.2387 	1
0.2394 	1
0.2401 	1
0.2408 	1
0.2415 	1
0.2422 	1
0.2429 	1
0.2436 	1
0.2443 	1
0.245 	1
0.2457 	1
0.2464 	1
0.2471 	1
0.2478 	1
0.2485 	1
0.2492 	1
0.2499 	1
0.2506 	1
0.2513 	1
0.252 	1
0.2527 	1
0.2534 	1
0.2541 	1
0.2548 	1
0.2555 	1
0.2562 	1
0.2569 	1
0.2576 	1
0.2583 	1
0.259 	1
0.2597 	1
0.2604 	1
0.2611 	1
0.2618 	1
0.2625 	0.999999
0.2632 	0.999999
0.2639 	0.999994
0.2646 	0.999986
0.2653 	0.999984
0.266 	0.999989
0.2667 	0.999925
0.2674 	0.999824
0.2681 	0.999723
0.2688 	0.999306
0.2695 	0.998482
0.2702 	0.997916
0.2709 	0.997993
0.2716 	0.996061
0.2723 	0.99212
0.273 	0.988179
0.2737 	0.981165
0.2744 	0.964847
0.2751 	0.9494
0.2758 	0.940908
0.2765 	0.924135
0.2772 	0.892457
0.2779 	0.860779
0.2786 	0.82499
0.2793 	0.755584
0.28 	0.68121
0.2807 	0.609503
0.2814 	0.540074
0.2821 	0.478998
0.2828 	0.417923
0.2835 	0.357166
0.2842 	0.307755
0.2849 	0.262141
0.2856 	0.208541
0.2863 	0.154823
0.287 	0.116865
0.2877 	0.0789065
0.2884 	0.0409482
0.2891 	0.0298393
0.2898 	0.0287834
0.2905 	0.0241543
0.2912 	0.0180959
0.2919 	0.0130538
0.2926 	0.00808996
0.2933 	0.00312608
0.294 	0.00151686
0.2947 	0.00146366
0.2954 	0.00126567
0.2961 	0.00095909
0.2968 	0.000696907
0.2975 	0.000446833
0.2982 	0.000196758
0.2989 	7.98427e-05
0.2996 	7.78207e-05
0.3003 	6.96242e-05
0.301 	5.31948e-05
0.3017 	3.86262e-05
0.3024 	2.50913e-05
0.3031 	1.15564e-05
0.3038 	3.40218e-06
0.3045 	3.38002e-06
0.3052 	3.15767e-06
0.3059 	2.43484e-06
0.3066 	1.76898e-06
0.3073 	1.16009e-06
0.308 	5.5119e-07
0.3087 	1.11662e-07
0.3094 	1.02895e-07
0.3101 	9.91726e-08
0.3108 	7.67196e-08
0.3115 	5.54755e-08
0.3122 	3.64074e-08
0.3129 	1.73394e-08
0.3136 	1.37563e-09
0.3143 	6.36664e-10
0.315 	6.25541e-10
0.3157 	4.88471e-10
0.3164 	3.56067e-10
0.3171 	2.40766e-10
0.3178 	1.25465e-10
0.3185 	1.51794e-11
0.3192 	7.45333e-12
0.3199 	7.49475e-12
0.3206 	7.50947e-12
0.3213 	7.51906e-12
0.322 	7.51968e-12
0.3227 	7.52031e-12
0.3234 	7.52093e-12
0.3241 	7.49878e-12
0.3248 	7.47017e-12
0.3255 	7.46015e-12
0.3262 	7.45757e-12
0.3269 	7.39098e-12
0.3276 	7.31948e-12
0.3283 	7.24798e-12
0.329 	7.09618e-12
0.3297 	6.88329e-12
0.3304 	6.69305e-12
0.3311 	6.51979e-12
0.3318 	6.34509e-12
0.3325 	6.17e-12
0.3332 	5.99491e-12
0.3339 	5.78778e-12
0.3346 	5.56008e-12
0.3353 	5.33744e-12
0.336 	5.12155e-12
0.3367 	4.91058e-12
0.3374 	4.70234e-12
0.3381 	4.49411e-12
0.3388 	4.28095e-12
0.3395 	4.0689e-12
0.3402 	3.85093e-12
0.3409 	3.61816e-12
0.3416 	3.39644e-12
0.3423 	3.18576e-12
0.343 	2.97509e-12
0.3437 	2.77197e-12
0.3444 	2.6045e-12
0.3451 	2.43168e-12
0.3458 	2.21739e-12
0.3465 	2.01572e-12
0.3472 	1.8368e-12
0.3479 	1.65787e-12
0.3486 	1.48793e-12
0.3493 	1.38478e-12
0.35 	1.28911e-12
0.3507 	1.13985e-12
0.3514 	9.97075e-13
0.3521 	8.78095e-13
0.3528 	7.59115e-13
0.3535 	6.42135e-13
0.3542 	5.90777e-13
0.3549 	5.50056e-13
0.3556 	4.76752e-13
0.3563 	3.9928e-13
0.357 	3.38211e-13
0.3577 	2.77142e-13
0.3584 	2.16073e-13
0.3591 	1.92199e-13
0.3598 	1.80268e-13
0.3605 	1.55305e-13
0.3612 	1.25129e-13
0.3619 	1.01407e-13
0.3626 	7.81817e-14
0.3633 	5.49564e-14
0.364 	4.49048e-14
0.3647 	4.27518e-14
0.3654 	3.7246e-14
0.3661 	2.92256e-14
0.3668 	2.26111e-14
0.3675 	1.638e-14
0.3682 	1.01488e-14
0.3689 	6.91902e-15
0.3696 	6.74692e-15
0.3703 	6.05955e-15
0.371 	4.68516e-15
0.3717 	3.49039e-15
0.3724 	2.3954e-15
0.3731 	1.30041e-15
0.3738 	6.11466e-16
0.3745 	6.18527e-16
0.3752 	5.85351e-16
0.3759 	4.51581e-16
0.3766 	3.29195e-16
0.3773 	2.18193e-16
0.378 	1.0719e-16
0.3787 	2.53677e-17
0.3794 	2.55654e-17
0.3801 	2.61991e-17
0.3808 	2.04181e-17
0.3815 	1.48945e-17
0.3822 	9.83422e-18
0.3829 	4.77391e-18
0.3836 	4.91885e-19
0.3843 	3.93997e-19
0.385 	4.29074e-19
0.3857 	3.49687e-19
0.3864 	2.71981e-19
0.3871 	2.00434e-19
0.3878 	1.28888e-19
0.3885 	5.92004e-20
0.3892 	5.48319e-20
0.3899 	5.26735e-20
0.3906 	4.67694e-20
0.3913 	4.03192e-20
0.392 	3.48847e-20
0.3927 	2.94503e-20
0.3934 	2.40158e-20
0.3941 	2.18294e-20
0.3948 	2.05455e-20
0.3955 	1.76836e-20
0.3962 	1.41905e-20
0.3969 	1.14439e-20
0.3976 	8.75464e-21
0.3983 	6.06542e-21
0.399 	4.94741e-21
0.3997 	4.79985e-21
0.4004 	4.20791e-21
0.4011 	3.28266e-21
0.4018 	2.50456e-21
0.4025 	1.76658e-21
0.4032 	1.0286e-21
0.4039 	6.58065e-22
0.4046 	6.56712e-22
0.4053 	5.97073e-22
0.406 	4.59719e-22
0.4067 	3.37728e-22
0.4074 	2.24271e-22
0.4081 	1.10815e-22
0.4088 	4.04488e-23
0.4095 	4.2473e-23
0.4102 	4.12468e-23
0.4109 	3.18946e-23
0.4116 	2.31313e-23
0.4123 	1.49568e-23
0.413 	6.78236e-24
0.4137 	7.92116e-25
0.4144 	8.00977e-25
0.4151 	8.52851e-25
0.4158 	6.68442e-25
0.4165 	4.89173e-25
0.4172 	3.19154e-25
0.4179 	1.49135e-25
0.4186 	4.68394e-27
0.4193 	2.22709e-27
0.42 	2.61104e-27
0.4207 	2.07124e-27
0.4214 	1.53723e-27
0.4221 	1.02447e-27
0.4228 	5.11716e-28
0.4235 	7.96441e-30
0.4242 	5.53609e-31
0.4249 	6.71812e-31
0.4256 	5.67484e-31
0.4263 	4.26451e-31
0.427 	2.90405e-31
0.4277 	1.54358e-31
0.4284 	1.83118e-32
0.4291 	1.62629e-35
0.4298 	1.94275e-35
0.4305 	1.73318e-35
0.4312 	1.31319e-35
0.4319 	9.12245e-36
0.4326 	5.1277e-36
0.4333 	1.13295e-36
0.434 	1.08095e-39
0.4347 	1.2929e-39
0.4354 	1.22043e-39
0.4361 	9.34667e-40
0.4368 	6.59918e-40
0.4375 	3.88174e-40
0.4382 	1.1643e-40
0.4389 	6.90363e-44
0.4396 	8.28191e-44
0.4403 	8.26637e-44
0.441 	6.39242e-44
0.4417 	4.57928e-44
0.4424 	2.79993e-44
0.4431 	1.02058e-44
0.4438 	1.06597e-47
0.4445 	1.11994e-47
0.4452 	1.08697e-47
0.4459 	8.36671e-48
0.4466 	6.03058e-48
0.4473 	3.86136e-48
0.448 	1.69214e-48
0.4487 	7.38079e-50
0.4494 	4.74996e-50
0.4501 	4.23395e-50
0.4508 	3.22475e-50
0.4515 	2.30197e-50
0.4522 	1.53471e-50
0.4529 	7.67449e-51
0.4536 	8.13111e-52
0.4543 	2.89464e-52
0.455 	2.63102e-52
0.4557 	2.0248e-52
0.4564 	1.44865e-52
0.4571 	9.8275e-53
0.4578 	5.1685e-53
0.4585 	5.36379e-54
0.4592 	6.25275e-55
0.4599 	6.02348e-55
0.4606 	4.84374e-55
0.4613 	3.52281e-55
0.462 	2.42582e-55
0.4627 	1.32883e-55
0.4634 	2.3184e-56
0.4641 	2.89628e-58
0.4648 	3.14229e-58
0.4655 	2.725e-58
0.4662 	2.04239e-58
0.4669 	1.42284e-58
0.4676 	8.08149e-59
0.4683 	1.93454e-59
0.469 	3.08859e-62
0.4697 	3.5711e-62
0.4704 	3.32894e-62
0.4711 	2.54328e-62
0.4718 	1.79728e-62
0.4725 	1.06209e-62
0.4732 	3.26901e-63
0.4739 	2.86719e-66
0.4746 	3.3622e-66
0.4753 	3.32137e-66
0.476 	2.56607e-66
0.4767 	1.83921e-66
0.4774 	1.12815e-66
0.4781 	4.17096e-67
0.4788 	2.56305e-70
0.4795 	3.04422e-70
0.4802 	3.18881e-70
0.4809 	2.49195e-70
0.4816 	1.81158e-70
0.4823 	1.1477e-70
0.483 	4.83818e-71
0.4837 	2.26752e-73
0.4844 	2.19022e-74
0.4851 	2.16069e-74
0.4858 	1.99015e-74
0.4865 	1.67228e-74
0.4872 	1.08921e-74
0.4879 	5.06146e-75
0.4886 	3.01082e-77
0.4893 	-6.25472e-75
0.49 	-1.41889e-74
0.4907 	-6.26105e-75
0.4914 	-3.29389e-77
0.4921 	-3.70143e-77
0.4928 	-4.10898e-77
0.4935 	-4.51653e-77
0.4942 	-8.38945e-75
0.4949 	-2.13679e-74
0.4956 	-1.21034e-74
0.4963 	-5.86622e-77
0.497 	-6.2945e-77
0.4977 	-6.72278e-77
0.4984 	-7.15105e-77
0.4991 	-9.13295e-75
0.4998 	-2.72526e-74
0.5005 	-1.94918e-74
0.5012 	-1.37894e-75
0.5019 	-8.91695e-77
0.5026 	-9.34366e-77
0.5033 	-9.77038e-77
0.504 	-8.32179e-75
0.5047 	-3.13432e-74
0.5054 	-2.80579e-74
0.5061 	-5.0428e-75
0.5068 	-1.14191e-76
0.5075 	-1.18199e-76
0.5082 	-1.22208e-76
0.5089 	-5.96361e-75
0.5096 	-3.32116e-74
0.5103 	-3.71064e-74
0.511 	-9.86365e-75
0.5117 	-1.36407e-76
0.5124 	-1.39863e-76
0.5131 	-1.43318e-76
0.5138 	-2.31611e-75
0.5145 	-3.26982e-74
0.5152 	-4.57203e-74
0.5159 	-1.5342e-74
0.5166 	-1.54201e-76
0.5173 	-1.56829e-76
0.518 	-1.59458e-76
0.5187 	-1.61622e-76
0.5194 	-2.99955e-74
0.5201 	-5.29448e-74
0.5208 	-2.08183e-74
0.5215 	-1.66278e-76
0.5222 	-1.67886e-76
0.5229 	-1.69494e-76
0.5236 	-1.70923e-76
0.5243 	-2.56082e-74
0.525 	-5.79828e-74
0.5257 	-2.56086e-74
0.5264 	-1.71943e-76
0.5271 	-1.72457e-76
0.5278 	-1.72971e-76
0.5285 	-1.73484e-76
0.5292 	-2.0234e-74
0.5299 	-5.14394e-74
0.5306 	-2.91488e-74
0.5313 	-1.71221e-76
0.532 	-1.70684e-76
0.5327 	-1.70147e-76
0.5334 	-1.6961e-76
0.5341 	-1.4603e-74
0.5348 	-4.34705e-74
0.5355 	-3.10969e-74
0.5362 	-2.22674e-75
0.5369 	-1.63297e-76
0.5376 	-1.61834e-76
0.5383 	-1.60371e-76
0.539 	-9.33773e-75
0.5397 	-3.50367e-74
0.5404 	-3.13633e-74
0.5411 	-5.66076e-75
0.5418 	-1.5141e-76
0.5425 	-1.49229e-76
0.5432 	-1.47047e-76
0.5439 	-4.87355e-75
0.5446 	-2.69373e-74
0.5453 	-3.00875e-74
0.546 	-8.0195e-75
0.5467 	-1.3644e-76
0.5474 	-1.33835e-76
0.5481 	-1.3123e-76
0.5488 	-1.43813e-75
0.5495 	-1.97635e-74
0.5502 	-2.76159e-74
0.5509 	-9.28618e-75
0.5516 	-1.19948e-76
0.5523 	-1.17195e-76
0.553 	-1.14441e-76
0.5537 	-1.11987e-76
0.5544 	-1.38402e-74
0.5551 	-2.43998e-74
0.5558 	-9.61116e-75
0.5565 	-1.0322e-76
0.5572 	-1.00477e-76
0.5579 	-9.77333e-77
0.5586 	-9.51422e-77
0.5593 	-9.22406e-75
0.56 	-2.08431e-74
0.5607 	-9.22002e-75
0.5614 	-8.70714e-77
0.5621 	-8.44863e-77
0.5628 	-8.19013e-77
0.5635 	-7.93162e-77
0.5642 	-5.80865e-75
0.5649 	-1.47217e-74
0.5656 	-8.35217e-75
0.5663 	-7.22537e-77
0.567 	-6.99422e-77
0.5677 	-6.76307e-77
0.5684 	-6.53192e-77
0.5691 	-3.41111e-75
0.5698 	-1.01042e-74
0.5705 	-7.23354e-75
0.5712 	-5.37335e-76
0.5719 	-5.71441e-77
0.5726 	-5.50966e-77
0.5733 	-5.30491e-77
0.574 	-1.81256e-75
0.5747 	-6.74185e-75
0.5754 	-6.03617e-75
0.5761 	-1.10425e-75
0.5768 	-4.6006e-77
0.5775 	-4.4204e-77
0.5782 	-4.2402e-77
0.5789 	-8.02791e-76
0.5796 	-4.35632e-75
0.5803 	-4.86304e-75
0.581 	-1.30732e-75
0.5817 	-3.64651e-77
0.5824 	-3.4973e-77
0.5831 	-3.3481e-77
0.5838 	-2.10817e-76
0.5845 	-2.70902e-75
0.5852 	-3.77917e-75
0.5859 	-1.2792e-75
0.5866 	-2.86182e-77
0.5873 	-2.74243e-77
0.588 	-2.62305e-77
0.5887 	-2.52102e-77
0.5894 	-1.60921e-75
0.5901 	-2.82749e-75
0.5908 	-1.12018e-75
0.5915 	-2.22562e-77
0.5922 	-2.12477e-77
0.5929 	-2.02392e-77
0.5936 	-1.93016e-77
0.5943 	-9.06629e-76
0.595 	-2.03607e-75
0.5957 	-9.05482e-76
0.5964 	-1.69722e-77
0.5971 	-1.60782e-77
0.5978 	-1.51842e-77
0.5985 	-1.42902e-77
0.5992 	-4.80777e-76
0.5999 	-1.20662e-75
0.6006 	-6.87398e-76
0.6013 	-1.25153e-77
0.602 	-1.17261e-77
0.6027 	-1.09368e-77
0.6034 	-1.01476e-77
0.6041 	-2.36725e-76
0.6048 	-6.90303e-76
0.6055 	-4.95445e-76
0.6062 	-4.12137e-77
0.6069 	-8.17158e-78
0.6076 	-7.52804e-78
0.6083 	-6.8845e-78
0.609 	-1.05175e-76
0.6097 	-3.81107e-76
0.6104 	-3.41429e-76
0.6111 	-6.5044e-77
0.6118 	-5.44498e-78
0.6125 	-4.96908e-78
0.6132 	-4.49318e-78
0.6139 	-3.92871e-77
0.6146 	-2.02844e-76
0.6153 	-2.26081e-76
0.616 	-6.22239e-77
0.6167 	-3.49294e-78
0.6174 	-3.16495e-78
0.6181 	-2.83695e-78
0.6188 	-9.36937e-78
0.6195 	-1.03909e-76
0.6202 	-1.44371e-76
0.6209 	-4.96406e-77
0.6216 	-2.1682e-78
0.6223 	-1.95368e-78
0.623 	-1.73915e-78
0.6237 	-1.56827e-78
0.6244 	-5.10949e-77
0.6251 	-8.91781e-77
0.6258 	-3.57206e-77
0.6265 	-1.30709e-78
0.6272 	-1.17251e-78
0.6279 	-1.03794e-78
0.6286 	-9.15772e-79
0.6293 	-2.40108e-77
0.63 	-5.34122e-77
0.6307 	-2.39407e-77
0.6314 	-7.67073e-79
0.6321 	-6.85525e-79
0.6328 	-6.03977e-79
0.6335 	-5.22428e-79
0.6342 	-1.06975e-77
0.6349 	-2.65373e-77
0.6356 	-1.51884e-77
0.6363 	-4.38883e-79
0.637 	-3.9099e-79
0.6377 	-3.43098e-79
0.6384 	-2.95206e-79
0.6391 	-4.45649e-78
0.6398 	-1.28016e-77
0.6405 	-9.20882e-78
0.6412 	-8.40902e-79
0.6419 	-2.17829e-79
0.6426 	-1.90506e-79
0.6433 	-1.63183e-79
0.644 	-1.68923e-78
0.6447 	-5.99097e-78
0.6454 	-5.36928e-78
0.6461 	-1.05503e-78
0.6468 	-1.18637e-79
0.6475 	-1.03482e-79
0.6482 	-8.83271e-80
0.6489 	-5.45907e-79
0.6496 	-2.71794e-78
0.6503 	-3.02536e-78
0.651 	-8.46618e-79
0.6517 	-6.32293e-80
0.6524 	-5.50348e-80
0.6531 	-4.68402e-80
0.6538 	-1.18222e-79
0.6545 	-1.19331e-78
0.6552 	-1.65307e-78
0.6559 	-5.74482e-79
0.6566 	-3.30241e-80
0.6573 	-2.86956e-80
0.658 	-2.4367e-80
0.6587 	-2.09504e-80
0.6594 	-5.05531e-79
0.6601 	-8.78072e-79
0.6608 	-3.54372e-79
0.6615 	-1.69108e-80
0.6622 	-1.46786e-80
0.6629 	-1.24463e-80
0.6636 	-1.04229e-80
0.6643 	-2.05872e-79
0.665 	-4.54733e-79
0.6657 	-2.04979e-79
0.6664 	-8.50181e-81
0.6671 	-7.37465e-81
0.6678 	-6.2475e-81
0.6685 	-5.12034e-81
0.6692 	-8.0023e-80
0.6699 	-1.96689e-79
0.6706 	-1.12981e-79
0.6713 	-4.20081e-81
0.672 	-3.64233e-81
0.6727 	-3.08384e-81
0.6734 	-2.52535e-81
0.6741 	-2.9294e-80
0.6748 	-8.30862e-80
0.6755 	-5.98817e-80
0.6762 	-5.87839e-81
0.6769 	-1.76885e-81
0.6776 	-1.49727e-81
0.6783 	-1.22568e-81
0.679 	-9.84149e-81
0.6797 	-3.42473e-80
0.6804 	-3.07038e-80
0.6811 	-6.19838e-81
0.6818 	-8.45313e-82
0.6825 	-7.15615e-82
0.6832 	-5.85916e-82
0.6839 	-2.8554e-81
0.6846 	-1.37564e-80
0.6853 	-1.52938e-80
0.686 	-4.34665e-81
0.6867 	-3.97771e-82
0.6874 	-3.36821e-82
0.6881 	-2.7587e-82
0.6888 	-5.77998e-82
0.6895 	-5.36617e-81
0.6902 	-7.41215e-81
0.6909 	-2.60266e-81
0.6916 	-1.83464e-82
0.6923 	-1.5455e-82
0.693 	-1.25635e-82
0.6937 	-1.02924e-82
0.6944 	-1.96078e-81
0.6951 	-3.38867e-81
0.6958 	-1.37713e-81
0.6965 	-7.87194e-83
0.6972 	-6.39604e-83
0.6979 	-4.92014e-83
0.6986 	-3.58437e-83
0.6993 	-3.12083e-83
0.7 	-2.59255e-83
