0 	1
0.0007 	1
0.0014 	1
0.0021 	1
0.0028 	1
0.0035 	1
0.0042 	1
0.0049 	1
0.0056 	1
0.0063 	1
0.007 	1
0.0077 	1
0.0084 	1
0.0091 	1
0.0098 	1
0.0105 	1
0.0112 	1
0.0119 	1
0.0126 	1
0.0133 	1
0.014 	1
0.0147 	1
0.0154 	1
0.0161 	1
0.0168 	1
0.0175 	1
0.0182 	1
0.0189 	1
0.0196 	1
0.0203 	1
0.021 	1
0.0217 	1
0.0224 	1
0.0231 	1
0.0238 	1
0.0245 	1
0.0252 	1
0.0259 	1
0.0266 	1
0.0273 	1
0.028 	1
0.0287 	1
0.0294 	1
0.0301 	1
0.0308 	1
0.0315 	1
0.0322 	1
0.0329 	1
0.0336 	1
0.0343 	1
0.035 	1
0.0357 	1
0.0364 	1
0.0371 	1
0.0378 	1
0.0385 	1
0.0392 	1
0.0399 	1
0.0406 	1
0.0413 	1
0.042 	1
0.0427 	1
0.0434 	1
0.0441 	1
0.0448 	1
0.0455 	1
0.0462 	1
0.0469 	1
0.0476 	1
0.0483 	1
0.049 	1
0.0497 	1
0.0504 	1
0.0511 	1
0.0518 	1
0.0525 	1
0.0532 	1
0.0539 	1
0.0546 	1
0.0553 	1
0.056 	1
0.0567 	1
0.0574 	1
0.0581 	1
0.0588 	1
0.0595 	1
0.0602 	1
0.0609 	1
0.0616 	1
0.0623 	1
0.063 	1
0.0637 	1
0.0644 	1
0.0651 	1
0.0658 	1
0.0665 	1
0.0672 	1
0.0679 	1
0.0686 	1
0.0693 	1
0.07 	1
0.0707 	1
0.0714 	1
0.0721 	1
0.0728 	1
0.0735 	1
0.0742 	1
0.0749 	1
0.0756 	1
0.0763 	1
0.077 	1
0.0777 	1
0.0784 	1
0.0791 	1
0.0798 	1
0.0805 	1
0.0812 	1
0.0819 	1
0.0826 	1
0.0833 	1
0.084 	1
0.0847 	1
0.0854 	1
0.0861 	1
0.0868 	1
0.0875 	1
0.0882 	1
0.0889 	1
0.0896 	1
0.0903 	1
0.091 	1
0.0917 	1
0.0924 	1
0.0931 	1
0.0938 	1
0.0945 	1
0.0952 	1
0.0959 	1
0.0966 	1
0.0973 	1
0.098 	1
0.0987 	1
0.0994 	1
0.1001 	1
0.1008 	1
0.1015 	1
0.1022 	1
0.1029 	1
0.1036 	1
0.1043 	1
0.105 	1
0.1057 	1
0.1064 	1
0.1071 	1
0.1078 	1
0.1085 	1
0.1092 	1
0.1099 	1
0.1106 	1
0.1113 	1
0.112 	1
0.1127 	1
0.1134 	1
0.1141 	1
0.1148 	1
0.1155 	1
0.1162 	1
0.1169 	1
0.1176 	1
0.1183 	1
0.119 	1
0.1197 	1
0.1204 	1
0.1211 	1
0.1218 	1
0.1225 	1
0.1232 	1
0.1239 	1
0.1246 	1
0.1253 	1
0.126 	1
0.1267 	1
0.1274 	1
0.1281 	1
0.1288 	1
0.1295 	1
0.1302 	1
0.1309 	1
0.1316 	1
0.1323 	1
0.133 	1
0.1337 	1
0.1344 	1
0.1351 	1
0.1358 	1
0.1365 	1
0.1372 	1
0.1379 	1
0.1386 	1
0.1393 	1
0.14 	1
0.1407 	1
0.1414 	1
0.1421 	1
0.1428 	1
0.1435 	1
0.1442 	1
0.1449 	1
0.1456 	1
0.1463 	1
0.147 	1
0.1477 	1
0.1484 	1
0.1491 	1
0.1498 	1
0.1505 	1
0.1512 	1
0.1519 	1
0.1526 	1
0.1533 	1
0.154 	1
0.1547 	1
0.1554 	1
0.1561 	1
0.1568 	1
0.1575 	1
0.1582 	1
0.1589 	1
0.1596 	1
0.1603 	1
0.161 	1
0.1617 	1
0.1624 	1
0.1631 	1
0.1638 	1
0.1645 	1
0.1652 	1
0.1659 	1
0.1666 	1
0.1673 	1
0.168 	1
0.1687 	1
0.1694 	1
0.1701 	1
0.1708 	1
0.1715 	1
0.1722 	1
0.1729 	1
0.1736 	1
0.1743 	1
0.175 	1
0.1757 	1
0.1764 	1
0.1771 	1
0.1778 	1
0.1785 	1
0.1792 	1
0.1799 	1
0.1806 	1
0.1813 	1
0.182 	1
0.1827 	1
0.1834 	1
0.1841 	1
0.1848 	1
0.1855 	1
0.1862 	1
0.1869 	1
0.1876 	1
0.1883 	1
0.189 	1
0.1897 	1
0.1904 	1
0.1911 	1
0.1918 	1
0.1925 	1
0.1932 	1
0.1939 	1
0.1946 	1
0.1953 	1
0.196 	1
0.1967 	1
0.1974 	1
0.1981 	1
0.1988 	1
0.1995 	1
0.2002 	1
0.2009 	1
0.2016 	1
0.2023 	1
0.203 	1
0.2037 	1
0.2044 	1
0.2051 	1
0.2058 	1
0.2065 	1
0.2072 	1
0.2079 	1
0.2086 	1
0.2093 	1
0.21 	1
0.2107 	1
0.2114 	1
0.2121 	1
0.2128 	1
0.2135 	1
0.2142 	1
0.2149 	1
0.2156 	1
0.2163 	1
0.217 	1
0.2177 	1
0.2184 	1
0.2191 	1
0.2198 	1
0.2205 	1
0.2212 	1
0.2219 	1
0.2226 	1
0.2233 	1
0.224 	1
0.2247 	1
0.2254 	1
0.2261 	1
0.2268 	1
0.2275 	1
0.2282 	1
0.2289 	1
0.2296 	1
0.2303 	1
0.231 	1
0.2317 	1
0.2324 	1
0.2331 	1
0.2338 	1
0.2345 	1
0.2352 	1
0.2359 	1
0.2366 	1
0.2373 	1
0.238 	1
0.2387 	1
0.2394 	1
0.2401 	1
0.2408 	1
0.2415 	0.999997
0.2422 	0.999981
0.2429 	0.999951
0.2436 	0.999922
0.2443 	0.999887
0.245 	0.99985
0.2457 	0.999837
0.2464 	0.99965
0.2471 	0.998547
0.2478 	0.996539
0.2485 	0.994532
0.2492 	0.992001
0.2499 	0.98918
0.2506 	0.98715
0.2513 	0.984327
0.252 	0.968647
0.2527 	0.944597
0.2534 	0.920546
0.2541 	0.890021
0.2548 	0.853021
0.2555 	0.818859
0.2562 	0.785833
0.2569 	0.731549
0.2576 	0.670269
0.2583 	0.608685
0.259 	0.538926
0.2597 	0.454451
0.2604 	0.369445
0.2611 	0.28404
0.2618 	0.222833
0.2625 	0.17539
0.2632 	0.129708
0.2639 	0.0906257
0.2646 	0.0757394
0.2653 	0.0590315
0.266 	0.0398947
0.2667 	0.0245587
0.2674 	0.0158344
0.2681 	0.00943985
0.2688 	0.00346743
0.2695 	0.00298286
0.2702 	0.00242521
0.2709 	0.00168489
0.2716 	0.00104866
0.2723 	0.000669394
0.273 	0.000434043
0.2737 	0.000198692
0.2744 	0.00015658
0.2751 	0.00012777
0.2758 	8.9581e-05
0.2765 	5.5486e-05
0.2772 	3.40631e-05
0.2779 	2.16197e-05
0.2786 	9.17635e-06
0.2793 	5.73822e-06
0.28 	4.75609e-06
0.2807 	3.30811e-06
0.2814 	1.9536e-06
0.2821 	1.07176e-06
0.2828 	6.31171e-07
0.2835 	1.90587e-07
0.2842 	3.01582e-08
0.2849 	2.53733e-08
0.2856 	1.81553e-08
0.2863 	1.069e-08
0.287 	5.54953e-09
0.2877 	3.33786e-09
0.2884 	1.12619e-09
0.2891 	1.90079e-11
0.2898 	1.63153e-11
0.2905 	1.20839e-11
0.2912 	7.23689e-12
0.2919 	3.62315e-12
0.2926 	2.17052e-12
0.2933 	8.50209e-13
0.294 	1.37305e-15
0.2947 	1.19549e-15
0.2954 	9.19459e-16
0.2961 	5.69581e-16
0.2968 	2.93288e-16
0.2975 	1.6687e-16
0.2982 	7.37233e-17
0.2989 	5.19055e-19
0.2996 	4.37071e-19
0.3003 	3.39219e-19
0.301 	2.20209e-19
0.3017 	1.25373e-19
0.3024 	7.25413e-20
0.3031 	3.49519e-20
0.3038 	4.70244e-23
0.3045 	4.00966e-23
0.3052 	3.20652e-23
0.3059 	2.12753e-23
0.3066 	1.21054e-23
0.3073 	6.73991e-24
0.308 	3.48777e-24
0.3087 	2.3563e-25
0.3094 	2.88766e-27
0.3101 	2.37232e-27
0.3108 	1.60813e-27
0.3115 	9.23214e-28
0.3122 	4.96835e-28
0.3129 	2.72561e-28
0.3136 	4.82874e-29
0.3143 	2.03425e-31
0.315 	1.71743e-31
0.3157 	1.18701e-31
0.3164 	6.88459e-32
0.3171 	3.57518e-32
0.3178 	2.05908e-32
0.3185 	5.42977e-33
0.3192 	1.37792e-35
0.3199 	1.17378e-35
0.3206 	8.40876e-36
0.3213 	4.93369e-36
0.322 	2.47278e-36
0.3227 	1.48405e-36
0.3234 	4.95319e-37
0.3241 	8.88151e-40
0.3248 	7.62442e-40
0.3255 	5.65567e-40
0.3262 	3.40226e-40
0.3269 	1.69801e-40
0.3276 	1.01199e-40
0.3283 	3.96344e-41
0.329 	5.40638e-44
0.3297 	4.6723e-44
0.3304 	3.5843e-44
0.3311 	2.23087e-44
0.3318 	1.14847e-44
0.3325 	6.48983e-45
0.3332 	2.85731e-45
0.3339 	3.09292e-48
0.3346 	2.68811e-48
0.3353 	2.12947e-48
0.336 	1.36573e-48
0.3367 	7.2392e-49
0.3374 	3.89794e-49
0.3381 	1.87766e-49
0.3388 	1.66357e-52
0.3395 	1.45264e-52
0.3402 	1.18628e-52
0.3409 	7.81327e-53
0.3416 	4.25507e-53
0.3423 	2.19427e-53
0.343 	1.13537e-53
0.3437 	7.6473e-55
0.3444 	7.38864e-57
0.3451 	6.21111e-57
0.3458 	4.18853e-57
0.3465 	2.33749e-57
0.3472 	1.15912e-57
0.3479 	6.35824e-58
0.3486 	1.12528e-58
0.3493 	3.54671e-61
0.35 	3.06542e-61
0.3507 	2.11109e-61
0.3514 	1.20436e-61
0.3521 	5.76149e-62
0.3528 	3.31797e-62
0.3535 	8.7444e-63
0.3542 	1.6119e-65
0.3549 	1.40038e-65
0.3556 	1.00431e-65
0.3563 	5.84451e-66
0.357 	2.70351e-66
0.3577 	1.6224e-66
0.3584 	5.41295e-67
0.3591 	6.95749e-70
0.3598 	6.07524e-70
0.3605 	4.52648e-70
0.3612 	2.71112e-70
0.3619 	1.27289e-70
0.3626 	7.47067e-71
0.3633 	2.92513e-71
0.364 	2.86104e-74
0.3647 	2.51075e-74
0.3654 	1.93973e-74
0.3661 	1.20315e-74
0.3668 	5.93539e-75
0.3675 	3.25478e-75
0.3682 	1.43275e-75
0.3689 	1.12461e-78
0.3696 	9.91737e-79
0.3703 	7.93219e-79
0.371 	5.07178e-79
0.3717 	2.60709e-79
0.3724 	1.34788e-79
0.3731 	6.49201e-80
0.3738 	4.17016e-83
0.3745 	2.71385e-83
0.3752 	1.6469e-83
0.3759 	1.55335e-83
0.3766 	1.0859e-83
0.3773 	5.32857e-84
0.378 	2.75679e-84
0.3787 	1.85002e-85
0.3794 	-7.17706e-84
0.3801 	-1.2699e-83
0.3808 	-4.96898e-84
0.3815 	2.53498e-88
0.3822 	1.22847e-88
0.3829 	3.21022e-89
0.3836 	-5.86428e-89
0.3843 	-2.59583e-84
0.385 	-5.89952e-84
0.3857 	-2.59583e-84
0.3864 	-5.6186e-89
0.3871 	-1.18972e-89
0.3878 	-1.10836e-89
0.3885 	-1.027e-89
0.3892 	-6.05735e-85
0.3899 	-1.54798e-84
0.3906 	-8.74947e-85
0.3913 	-7.98564e-90
0.392 	-1.01892e-90
0.3927 	-9.07278e-91
0.3934 	-7.95637e-91
0.3941 	-1.07817e-85
0.3948 	-3.23452e-85
0.3955 	-2.31037e-85
0.3962 	-1.54033e-86
0.3969 	-9.40065e-92
0.3976 	-3.9182e-92
0.3983 	-3.13401e-92
0.399 	-1.50076e-86
0.3997 	-5.70289e-86
0.4004 	-5.10259e-86
0.4011 	-9.00463e-87
0.4018 	-7.67474e-93
0.4025 	-2.86983e-93
0.4032 	-2.68487e-93
0.4039 	-1.54315e-87
0.4046 	-8.74459e-87
0.4053 	-9.77338e-87
0.406 	-2.57195e-87
0.4067 	-1.11219e-93
0.4074 	-3.89378e-94
0.4081 	-3.74201e-94
0.4088 	-7.84427e-89
0.4095 	-1.17666e-87
0.4102 	-1.64733e-87
0.4109 	-5.49112e-88
0.4116 	-1.94198e-94
0.4123 	-4.9049e-95
0.413 	-4.7009e-95
0.4137 	-4.4969e-95
0.4144 	-1.4064e-88
0.4151 	-2.48825e-88
0.4158 	-9.73663e-89
0.4165 	-2.90483e-95
0.4172 	-5.61248e-96
0.4179 	-5.3695e-96
0.4186 	-5.12653e-96
0.4193 	-1.51339e-89
0.42 	-3.43953e-89
0.4207 	-1.51339e-89
0.4214 	-3.86671e-96
0.4221 	-5.83355e-97
0.4228 	-5.57644e-97
0.4235 	-5.31932e-97
0.4242 	-1.45021e-90
0.4249 	-3.7061e-90
0.4256 	-2.09475e-90
0.4263 	-4.60611e-97
0.427 	-5.49941e-98
0.4277 	-5.25728e-98
0.4284 	-5.01515e-98
0.4291 	-1.21424e-91
0.4298 	-3.64271e-91
0.4305 	-2.60194e-91
0.4312 	-1.73466e-92
0.4319 	-8.39709e-99
0.4326 	-4.54078e-99
0.4333 	-4.33462e-99
0.434 	-8.63701e-93
0.4347 	-3.28207e-92
0.4354 	-2.93659e-92
0.4361 	-5.18225e-93
0.4368 	-1.20552e-99
0.4375 	-3.64012e-100
0.4382 	-3.47873e-100
0.4389 	-4.81247e-94
0.4396 	-2.72708e-93
0.4403 	-3.04792e-93
0.441 	-8.02086e-94
0.4417 	-1.3616e-100
0.4424 	-2.76034e-101
0.4431 	-2.64168e-101
0.4438 	-1.4043e-95
0.4445 	-2.10649e-94
0.4452 	-2.94909e-94
0.4459 	-9.83032e-95
0.4466 	-1.33619e-101
0.4473 	-2.00248e-102
0.448 	-1.91861e-102
0.4487 	-1.83474e-102
0.4494 	-1.51192e-95
0.4501 	-2.67494e-95
0.4508 	-1.04672e-95
0.4515 	-1.19087e-102
0.4522 	-1.39009e-103
0.4529 	-1.33371e-103
0.4536 	-1.27732e-103
0.4543 	-9.98309e-97
0.455 	-2.26889e-96
0.4557 	-9.98311e-97
0.4564 	-9.82034e-104
0.4571 	-9.26383e-105
0.4578 	-8.90176e-105
0.4585 	-8.53969e-105
0.4592 	-5.98934e-98
0.4599 	-1.53061e-97
0.4606 	-8.6513e-98
0.4613 	-7.58778e-105
0.462 	-5.99501e-106
0.4627 	-5.76948e-106
0.4634 	-5.54395e-106
0.4641 	-3.2144e-99
0.4648 	-9.64322e-99
0.4655 	-6.88802e-99
0.4662 	-4.59208e-100
0.4669 	-8.44498e-107
0.4676 	-3.68503e-107
0.4683 	-3.5461e-107
0.469 	-1.49632e-100
0.4697 	-5.68603e-100
0.4704 	-5.0875e-100
0.4711 	-8.97799e-101
0.4718 	-9.71001e-108
0.4725 	-2.34894e-108
0.4732 	-2.26276e-108
0.4739 	-5.55398e-102
0.4746 	-3.14727e-101
0.4753 	-3.51754e-101
0.476 	-9.25672e-102
0.4767 	-8.91952e-109
0.4774 	-1.49797e-109
0.4781 	-1.44401e-109
0.4788 	-1.09171e-103
0.4795 	-1.6376e-102
0.4802 	-2.29264e-102
0.4809 	-7.64215e-103
0.4816 	-7.40792e-110
0.4823 	-9.45763e-111
0.483 	-9.12233e-111
0.4837 	-8.78703e-111
0.4844 	-7.99123e-104
0.4851 	-1.41383e-103
0.4858 	-5.5324e-104
0.4865 	-5.75477e-111
0.4872 	-5.81162e-112
0.4879 	-5.60978e-112
0.4886 	-5.40795e-112
0.4893 	-3.63545e-105
0.49 	-8.26239e-105
0.4907 	-3.63545e-105
0.4914 	-4.19995e-112
0.4921 	-3.41976e-113
0.4928 	-3.30431e-113
0.4935 	-3.18886e-113
0.4942 	-1.52432e-106
0.4949 	-3.89549e-106
0.4956 	-2.2018e-106
0.4963 	-2.86602e-113
0.497 	-1.90382e-114
0.4977 	-1.84187e-114
0.4984 	-1.77992e-114
0.4991 	-5.78202e-108
0.4998 	-1.73461e-107
0.5005 	-1.23901e-107
0.5012 	-8.26018e-109
0.5019 	-2.63211e-115
0.5026 	-9.65409e-116
0.5033 	-9.34389e-116
0.504 	-1.91606e-109
0.5047 	-7.28106e-109
0.5054 	-6.51464e-109
0.5061 	-1.14965e-109
0.5068 	-2.52455e-116
0.5075 	-4.74762e-117
0.5082 	-4.60273e-117
0.5089 	-5.07657e-111
0.5096 	-2.87674e-110
0.5103 	-3.21518e-110
0.511 	-8.46103e-111
0.5117 	-1.80985e-117
0.5124 	-2.19179e-118
0.5131 	-2.12844e-118
0.5138 	-7.12146e-113
0.5145 	-1.06824e-111
0.5152 	-1.49554e-111
0.5159 	-4.98513e-112
0.5166 	-1.10028e-118
0.5173 	-9.51901e-120
0.518 	-9.25848e-120
0.5187 	-8.99794e-120
0.5194 	-3.71963e-113
0.5201 	-6.58088e-113
0.5208 	-2.57513e-113
0.5215 	-5.93679e-120
0.5222 	-3.90313e-121
0.5229 	-3.80169e-121
0.5236 	-3.70024e-121
0.5243 	-1.21074e-114
0.525 	-2.75169e-114
0.5257 	-1.21074e-114
0.5264 	-2.91154e-121
0.5271 	-1.51427e-122
0.5278 	-1.4767e-122
0.5285 	-1.43913e-122
0.5292 	-3.6487e-116
0.5299 	-9.32447e-116
0.5306 	-5.27035e-116
0.5313 	-1.31512e-122
0.532 	-5.57416e-124
0.5327 	-5.44111e-124
0.5334 	-5.30805e-124
0.5341 	-1.00195e-117
0.5348 	-3.00584e-117
0.5355 	-2.14703e-117
0.5362 	-1.43138e-118
0.5369 	-7.34965e-125
0.5376 	-1.9086e-125
0.5383 	-1.86322e-125
0.539 	-2.4246e-119
0.5397 	-9.21352e-119
0.5404 	-8.24368e-119
0.5411 	-1.45477e-119
0.5418 	-4.95805e-126
0.5425 	-6.40234e-127
0.5432 	-6.25202e-127
0.5439 	-4.73513e-121
0.5446 	-2.68326e-120
0.5453 	-2.99894e-120
0.546 	-7.89195e-121
0.5467 	-2.45897e-127
0.5474 	-2.06531e-128
0.5481 	-2.01653e-128
0.5488 	-4.94364e-123
0.5495 	-7.41558e-122
0.5502 	-1.03818e-121
0.5509 	-3.46061e-122
0.5516 	-1.04796e-128
0.5523 	-6.44953e-130
0.553 	-6.29339e-130
0.5537 	-6.13726e-130
0.5544 	-1.94144e-123
0.5551 	-3.43486e-123
0.5558 	-1.34408e-123
0.5565 	-4.05759e-130
0.5572 	-1.96581e-131
0.5579 	-1.91623e-131
0.5586 	-1.86665e-131
0.5593 	-4.79921e-125
0.56 	-1.09073e-124
0.5607 	-4.79922e-125
0.5614 	-1.4715e-131
0.5621 	-5.87754e-133
0.5628 	-5.72145e-133
0.5635 	-5.56536e-133
0.5642 	-1.11008e-126
0.5649 	-2.83688e-126
0.5656 	-1.60346e-126
0.5663 	-5.08515e-133
0.567 	-1.73318e-134
0.5677 	-1.68456e-134
0.5684 	-1.63595e-134
0.5691 	-2.36596e-128
0.5698 	-7.0979e-128
0.5705 	-5.06993e-128
0.5712 	-3.38e-129
0.5719 	-2.26626e-135
0.5726 	-4.91061e-136
0.5733 	-4.7613e-136
0.574 	-4.49567e-130
0.5747 	-1.70836e-129
0.5754 	-1.52853e-129
0.5761 	-2.69742e-130
0.5768 	-1.26592e-136
0.5775 	-1.42024e-137
0.5782 	-1.37519e-137
0.5789 	-6.97585e-132
0.5796 	-3.953e-131
0.5803 	-4.41806e-131
0.581 	-1.16265e-131
0.5817 	-5.38283e-138
0.5824 	-4.07626e-139
0.5831 	-3.94315e-139
0.5838 	-5.85425e-134
0.5845 	-8.78149e-133
0.5852 	-1.22941e-132
0.5859 	-4.09804e-133
0.5866 	-2.03179e-139
0.5873 	-1.15949e-140
0.588 	-1.12105e-140
0.5887 	-1.08262e-140
0.5894 	-1.86813e-134
0.5901 	-3.30515e-134
0.5908 	-1.29332e-134
0.5915 	-7.14889e-141
0.5922 	-3.26248e-142
0.5929 	-3.15419e-142
0.5936 	-3.0459e-142
0.5943 	-3.79167e-136
0.595 	-8.61744e-136
0.5957 	-3.79168e-136
0.5964 	-2.39419e-142
0.5971 	-9.06015e-144
0.5978 	-8.76249e-144
0.5985 	-8.46483e-144
0.5992 	-7.28152e-138
0.5999 	-1.86083e-137
0.6006 	-1.05178e-137
0.6013 	-7.70849e-144
0.602 	-2.47436e-145
0.6027 	-2.39464e-145
0.6034 	-2.31492e-145
0.6041 	-1.30138e-139
0.6048 	-3.90415e-139
0.6055 	-2.78868e-139
0.6062 	-1.85916e-140
0.6069 	-3.2737e-146
0.6076 	-6.4229e-147
0.6083 	-6.21482e-147
0.609 	-2.09337e-141
0.6097 	-7.95483e-141
0.6104 	-7.11748e-141
0.6111 	-1.25603e-141
0.6118 	-1.66604e-147
0.6125 	-1.68806e-148
0.6132 	-1.63507e-148
0.6139 	-2.77434e-143
0.6146 	-1.57213e-142
0.6153 	-1.75708e-142
0.616 	-4.62392e-143
0.6167 	-6.4399e-149
0.6174 	-4.34319e-150
0.6181 	-4.21137e-150
0.6188 	-2.00472e-145
0.6195 	-3.00707e-144
0.6202 	-4.2099e-144
0.6209 	-1.4033e-144
0.6216 	-2.18531e-150
0.6223 	-1.09366e-151
0.623 	-1.06157e-151
0.6237 	-1.02948e-151
0.6244 	-5.5471e-146
0.6251 	-9.81409e-146
0.6258 	-3.84031e-146
0.6265 	-6.82907e-152
0.6272 	-2.69595e-153
0.6279 	-2.61941e-153
0.6286 	-2.54287e-153
0.6293 	-9.81353e-148
0.63 	-2.23035e-147
0.6307 	-9.81354e-148
0.6314 	-2.00931e-153
0.6321 	-6.50987e-155
0.6328 	-6.33073e-155
0.6335 	-6.1516e-155
0.6342 	-1.64969e-149
0.6349 	-4.21586e-149
0.6356 	-2.38288e-149
0.6363 	-5.63604e-155
0.637 	-1.54127e-156
0.6377 	-1.50009e-156
0.6384 	-1.45891e-156
0.6391 	-2.59162e-151
0.6398 	-7.77484e-151
0.6405 	-5.55346e-151
0.6412 	-3.70247e-152
0.6419 	-2.09038e-157
0.6426 	-3.50674e-158
0.6433 	-3.41363e-158
0.644 	-3.67705e-153
0.6447 	-1.39727e-152
0.6454 	-1.25019e-152
0.6461 	-2.20626e-153
0.6468 	-9.29938e-159
0.6475 	-8.75931e-160
0.6482 	-8.55226e-160
0.6489 	-4.3111e-155
0.6496 	-2.44293e-154
0.6503 	-2.73033e-154
0.651 	-7.18516e-155
0.6517 	-3.42975e-160
0.6524 	-2.31797e-161
0.6531 	-2.27262e-161
0.6538 	-2.76325e-157
0.6545 	-4.14462e-156
0.6552 	-5.80246e-156
0.6559 	-1.93417e-156
0.6566 	-1.20265e-161
0.6573 	-6.00173e-163
0.658 	-5.90302e-163
0.6587 	-5.80431e-163
0.6594 	-6.80135e-158
0.6601 	-1.20331e-157
0.6608 	-4.70865e-158
0.6615 	-3.88143e-163
0.6622 	-1.49249e-164
0.6629 	-1.47059e-164
0.6636 	-1.44868e-164
0.6643 	-1.07268e-159
0.665 	-2.4379e-159
0.6657 	-1.07268e-159
0.6664 	-1.15524e-164
0.6671 	-3.54607e-166
0.6678 	-3.49769e-166
0.6685 	-3.44931e-166
0.6692 	-1.61045e-161
0.6699 	-4.11555e-161
0.6706 	-2.3262e-161
0.6713 	-3.19419e-166
0.672 	-7.98183e-168
0.6727 	-7.87696e-168
0.6734 	-7.77208e-168
0.6741 	-2.26302e-163
0.6748 	-6.78891e-163
0.6755 	-4.84925e-163
0.6762 	-3.23356e-164
0.6769 	-1.13449e-168
0.6776 	-1.68487e-169
0.6783 	-1.66271e-169
0.679 	-2.87565e-165
0.6797 	-1.0927e-164
0.6804 	-9.77682e-165
0.6811 	-1.72546e-165
0.6818 	-4.56858e-170
0.6825 	-3.42546e-171
0.6832 	-3.37994e-171
0.6839 	-3.0224e-167
0.6846 	-1.71254e-166
0.6853 	-1.91401e-166
0.686 	-5.03713e-167
0.6867 	-1.36265e-171
0.6874 	-6.60191e-173
0.6881 	-6.511e-173
0.6888 	-1.73786e-169
0.6895 	-2.60591e-168
0.6902 	-3.64825e-168
0.6909 	-1.21612e-168
0.6916 	-3.45666e-173
0.6923 	-1.19526e-174
0.693 	-1.1776e-174
0.6937 	-1.15994e-174
0.6944 	-3.83294e-170
0.6951 	-6.78126e-170
0.6958 	-2.65361e-170
0.6965 	-7.75424e-175
0.6972 	-2.32547e-176
0.6979 	-2.29227e-176
0.6986 	-2.25907e-176
0.6993 	-2.24881e-176
0.7 	-2.24481e-176
