0 	1
0.0007 	1
0.0014 	1
0.0021 	1
0.0028 	1
0.0035 	1
0.0042 	1
0.0049 	1
0.0056 	1
0.0063 	1
0.007 	1
0.0077 	1
0.0084 	1
0.0091 	1
0.0098 	1
0.0105 	1
0.0112 	1
0.0119 	1
0.0126 	1
0.0133 	1
0.014 	1
0.0147 	1
0.0154 	1
0.0161 	1
0.0168 	1
0.0175 	1
0.0182 	1
0.0189 	1
0.0196 	1
0.0203 	1
0.021 	1
0.0217 	1
0.0224 	1
0.0231 	1
0.0238 	1
0.0245 	1
0.0252 	1
0.0259 	1
0.0266 	1
0.0273 	1
0.028 	1
0.0287 	1
0.0294 	1
0.0301 	1
0.0308 	1
0.0315 	1
0.0322 	1
0.0329 	1
0.0336 	1
0.0343 	1
0.035 	1
0.0357 	1
0.0364 	1
0.0371 	1
0.0378 	1
0.0385 	1
0.0392 	1
0.0399 	1
0.0406 	1
0.0413 	1
0.042 	1
0.0427 	1
0.0434 	1
0.0441 	1
0.0448 	1
0.0455 	1
0.0462 	1
0.0469 	1
0.0476 	1
0.0483 	1
0.049 	1
0.0497 	1
0.0504 	1
0.0511 	1
0.0518 	1
0.0525 	1
0.0532 	1
0.0539 	1
0.0546 	1
0.0553 	1
0.056 	1
0.0567 	1
0.0574 	1
0.0581 	1
0.0588 	1
0.0595 	1
0.0602 	1
0.0609 	1
0.0616 	1
0.0623 	1
0.063 	1
0.0637 	1
0.0644 	1
0.0651 	1
0.0658 	1
0.0665 	1
0.0672 	1
0.0679 	1
0.0686 	1
0.0693 	1
0.07 	1
0.0707 	1
0.0714 	1
0.0721 	1
0.0728 	1
0.0735 	1
0.0742 	1
0.0749 	1
0.0756 	1
0.0763 	1
0.077 	1
0.0777 	1
0.0784 	1
0.0791 	1
0.0798 	1
0.0805 	1
0.0812 	1
0.0819 	1
0.0826 	1
0.0833 	1
0.084 	1
0.0847 	1
0.0854 	1
0.0861 	1
0.0868 	1
0.0875 	1
0.0882 	1
0.0889 	1
0.0896 	1
0.0903 	1
0.091 	1
0.0917 	1
0.0924 	1
0.0931 	1
0.0938 	1
0.0945 	1
0.0952 	1
0.0959 	1
0.0966 	1
0.0973 	1
0.098 	1
0.0987 	1
0.0994 	1
0.1001 	1
0.1008 	1
0.1015 	1
0.1022 	1
0.1029 	1
0.1036 	1
0.1043 	1
0.105 	1
0.1057 	1
0.1064 	1
0.1071 	1
0.1078 	1
0.1085 	1
0.1092 	1
0.1099 	1
0.1106 	1
0.1113 	1
0.112 	1
0.1127 	1
0.1134 	1
0.1141 	1
0.1148 	1
0.1155 	1
0.1162 	1
0.1169 	1
0.1176 	1
0.1183 	1
0.119 	1
0.1197 	1
0.1204 	1
0.1211 	1
0.1218 	1
0.1225 	1
0.1232 	1
0.1239 	1
0.1246 	1
0.1253 	1
0.126 	1
0.1267 	1
0.1274 	1
0.1281 	1
0.1288 	1
0.1295 	1
0.1302 	1
0.1309 	1
0.1316 	1
0.1323 	1
0.133 	1
0.1337 	1
0.1344 	1
0.1351 	1
0.1358 	1
0.1365 	1
0.1372 	1
0.1379 	1
0.1386 	1
0.1393 	1
0.14 	1
0.1407 	1
0.1414 	1
0.1421 	1
0.1428 	1
0.1435 	1
0.1442 	1
0.1449 	1
0.1456 	1
0.1463 	1
0.147 	1
0.1477 	1
0.1484 	1
0.1491 	1
0.1498 	1
0.1505 	1
0.1512 	1
0.1519 	1
0.1526 	1
0.1533 	1
0.154 	1
0.1547 	1
0.1554 	1
0.1561 	1
0.1568 	1
0.1575 	1
0.1582 	1
0.1589 	1
0.1596 	1
0.1603 	1
0.161 	1
0.1617 	1
0.1624 	1
0.1631 	1
0.1638 	1
0.1645 	1
0.1652 	1
0.1659 	1
0.1666 	1
0.1673 	1
0.168 	1
0.1687 	1
0.1694 	1
0.1701 	1
0.1708 	1
0.1715 	1
0.1722 	1
0.1729 	1
0.1736 	1
0.1743 	1
0.175 	1
0.1757 	1
0.1764 	1
0.1771 	1
0.1778 	1
0.1785 	1
0.1792 	1
0.1799 	1
0.1806 	1
0.1813 	1
0.182 	1
0.1827 	1
0.1834 	1
0.1841 	1
0.1848 	1
0.1855 	1
0.1862 	1
0.1869 	1
0.1876 	1
0.1883 	1
0.189 	1
0.1897 	1
0.1904 	1
0.1911 	1
0.1918 	1
0.1925 	1
0.1932 	1
0.1939 	1
0.1946 	1
0.1953 	1
0.196 	1
0.1967 	1
0.1974 	1
0.1981 	1
0.1988 	1
0.1995 	1
0.2002 	1
0.2009 	1
0.2016 	1
0.2023 	1
0.203 	1
0.2037 	1
0.2044 	1
0.2051 	1
0.2058 	1
0.2065 	1
0.2072 	1
0.2079 	1
0.2086 	1
0.2093 	1
0.21 	1
0.2107 	1
0.2114 	1
0.2121 	1
0.2128 	1
0.2135 	1
0.2142 	1
0.2149 	1
0.2156 	1
0.2163 	1
0.217 	1
0.2177 	1
0.2184 	1
0.2191 	1
0.2198 	1
0.2205 	1
0.2212 	1
0.2219 	0.999999
0.2226 	0.999999
0.2233 	0.999999
0.224 	0.999998
0.2247 	0.999998
0.2254 	0.999998
0.2261 	0.999973
0.2268 	0.999946
0.2275 	0.999919
0.2282 	0.999892
0.2289 	0.999866
0.2296 	0.999839
0.2303 	0.999831
0.231 	0.998863
0.2317 	0.997646
0.2324 	0.996429
0.2331 	0.995212
0.2338 	0.993995
0.2345 	0.992778
0.2352 	0.992128
0.2359 	0.983269
0.2366 	0.969269
0.2373 	0.955272
0.238 	0.941274
0.2387 	0.927277
0.2394 	0.91328
0.2401 	0.900289
0.2408 	0.880052
0.2415 	0.83636
0.2422 	0.792669
0.2429 	0.748979
0.2436 	0.705289
0.2443 	0.661599
0.245 	0.604814
0.2457 	0.561559
0.2464 	0.509587
0.2471 	0.457611
0.2478 	0.405636
0.2485 	0.35366
0.2492 	0.301685
0.2499 	0.245914
0.2506 	0.184128
0.2513 	0.159261
0.252 	0.134389
0.2527 	0.109518
0.2534 	0.0846464
0.2541 	0.059775
0.2548 	0.0435887
0.2555 	0.0255196
0.2562 	0.0215269
0.2569 	0.0175335
0.2576 	0.01354
0.2583 	0.00954644
0.259 	0.00555293
0.2597 	0.00276406
0.2604 	0.00154085
0.2611 	0.00111873
0.2618 	0.000900849
0.2625 	0.00068296
0.2632 	0.000465071
0.2639 	0.000247182
0.2646 	5.03577e-05
0.2653 	5.5481e-05
0.266 	2.00618e-05
0.2667 	1.61575e-05
0.2674 	1.22529e-05
0.2681 	8.34837e-06
0.2688 	4.44381e-06
0.2695 	5.39262e-07
0.2702 	8.57645e-07
0.2709 	1.05927e-07
0.2716 	8.57102e-08
0.2723 	6.54913e-08
0.273 	4.52724e-08
0.2737 	2.50534e-08
0.2744 	4.83451e-09
0.2751 	3.75017e-09
0.2758 	1.59329e-10
0.2765 	1.33335e-10
0.2772 	1.07336e-10
0.2779 	8.13382e-11
0.2786 	5.534e-11
0.2793 	2.93418e-11
0.28 	2.32543e-11
0.2807 	1.99706e-11
0.2814 	1.96346e-11
0.2821 	1.9298e-11
0.2828 	1.89615e-11
0.2835 	1.8625e-11
0.2842 	1.82885e-11
0.2849 	1.78209e-11
0.2856 	1.7777e-11
0.2863 	1.69844e-11
0.287 	1.61921e-11
0.2877 	1.53999e-11
0.2884 	1.46076e-11
0.2891 	1.38154e-11
0.2898 	1.28486e-11
0.2905 	1.20843e-11
0.2912 	1.12142e-11
0.2919 	1.03446e-11
0.2926 	9.47504e-12
0.2933 	8.6055e-12
0.294 	7.73597e-12
0.2947 	6.8366e-12
0.2954 	5.74144e-12
0.2961 	5.14881e-12
0.2968 	4.59447e-12
0.2975 	4.04022e-12
0.2982 	3.48596e-12
0.2989 	2.93171e-12
0.2996 	2.39745e-12
0.3003 	1.88883e-12
0.301 	1.54612e-12
0.3017 	1.34003e-12
0.3024 	1.13398e-12
0.3031 	9.2793e-13
0.3038 	7.21882e-13
0.3045 	5.15833e-13
0.3052 	4.40856e-13
0.3059 	2.985e-13
0.3066 	2.54632e-13
0.3073 	2.10776e-13
0.308 	1.66921e-13
0.3087 	1.23066e-13
0.3094 	7.92108e-14
0.3101 	7.98233e-14
0.3108 	4.42426e-14
0.3115 	3.82684e-14
0.3122 	3.22999e-14
0.3129 	2.63314e-14
0.3136 	2.03629e-14
0.3143 	1.43945e-14
0.315 	1.42937e-14
0.3157 	8.88696e-15
0.3164 	7.87474e-15
0.3171 	6.86535e-15
0.3178 	5.85596e-15
0.3185 	4.84657e-15
0.3192 	3.83718e-15
0.3199 	3.23175e-15
0.3206 	2.41582e-15
0.3213 	2.13213e-15
0.322 	1.84946e-15
0.3227 	1.56678e-15
0.3234 	1.2841e-15
0.3241 	1.00142e-15
0.3248 	7.91723e-16
0.3255 	5.39081e-16
0.3262 	4.66279e-16
0.3269 	3.93658e-16
0.3276 	3.2105e-16
0.3283 	2.48443e-16
0.329 	1.75836e-16
0.3297 	1.22289e-16
0.3304 	7.61594e-17
0.3311 	5.98589e-17
0.3318 	4.90985e-17
0.3325 	3.83393e-17
0.3332 	2.75801e-17
0.3339 	1.68209e-17
0.3346 	7.37349e-18
0.3353 	6.66917e-18
0.336 	3.31165e-18
0.3367 	2.69109e-18
0.3374 	2.06992e-18
0.3381 	1.44876e-18
0.3388 	8.27592e-19
0.3395 	2.06426e-19
0.3402 	3.70987e-19
0.3409 	9.10191e-20
0.3416 	7.63129e-20
0.3423 	6.15572e-20
0.343 	4.68016e-20
0.3437 	3.2046e-20
0.3444 	1.72903e-20
0.3451 	1.67433e-20
0.3458 	1.01209e-20
0.3465 	8.78006e-21
0.3472 	7.43261e-21
0.3479 	6.08515e-21
0.3486 	4.7377e-21
0.3493 	3.39025e-21
0.35 	2.50365e-21
0.3507 	2.04242e-21
0.3514 	1.75968e-21
0.3521 	1.47499e-21
0.3528 	1.1903e-21
0.3535 	9.05608e-22
0.3542 	6.20917e-22
0.3549 	4.11199e-22
0.3556 	3.03027e-22
0.3563 	2.5702e-22
0.357 	2.10575e-22
0.3577 	1.6413e-22
0.3584 	1.17685e-22
0.3591 	7.12407e-23
0.3598 	3.83344e-23
0.3605 	2.40189e-23
0.3612 	2.01375e-23
0.3619 	1.62135e-23
0.3626 	1.22861e-23
0.3633 	8.35883e-24
0.364 	4.43152e-24
0.3647 	1.40774e-24
0.3654 	8.33472e-25
0.3661 	6.31357e-25
0.3668 	5.06335e-25
0.3675 	3.8098e-25
0.3682 	2.55625e-25
0.3689 	1.3027e-25
0.3696 	1.49643e-26
0.3703 	1.38073e-26
0.371 	6.53016e-27
0.3717 	5.25951e-27
0.3724 	3.98441e-27
0.3731 	2.70931e-27
0.3738 	1.43421e-27
0.3745 	1.59105e-28
0.3752 	9.61168e-29
0.3759 	3.30392e-29
0.3766 	2.67792e-29
0.3773 	2.05097e-29
0.378 	1.42402e-29
0.3787 	7.9707e-30
0.3794 	1.7012e-30
0.3801 	3.79739e-31
0.3808 	1.81389e-31
0.3815 	1.47889e-31
0.3822 	1.1432e-31
0.3829 	8.07507e-32
0.3836 	4.71818e-32
0.3843 	1.36129e-32
0.385 	2.07709e-33
0.3857 	8.37142e-34
0.3864 	6.87023e-34
0.3871 	5.35515e-34
0.3878 	3.84006e-34
0.3885 	2.32498e-34
0.3892 	8.099e-35
0.3899 	9.20403e-36
0.3906 	2.93091e-36
0.3913 	2.47403e-36
0.392 	2.00666e-36
0.3927 	1.5393e-36
0.3934 	1.07193e-36
0.3941 	6.04566e-37
0.3948 	3.50918e-37
0.3955 	2.27457e-37
0.3962 	2.06662e-37
0.3969 	1.85384e-37
0.3976 	1.64068e-37
0.3983 	1.42752e-37
0.399 	1.21436e-37
0.3997 	1.14044e-37
0.4004 	8.87049e-38
0.4011 	7.68621e-38
0.4018 	6.99186e-38
0.4025 	6.29401e-38
0.4032 	5.59616e-38
0.4039 	4.89832e-38
0.4046 	4.41433e-38
0.4053 	4.02936e-38
0.406 	2.94029e-38
0.4067 	2.62501e-38
0.4074 	2.30715e-38
0.4081 	1.98929e-38
0.4088 	1.67143e-38
0.4095 	1.35357e-38
0.4102 	1.51732e-38
0.4109 	8.15273e-39
0.4116 	7.05741e-39
0.4123 	5.94998e-39
0.413 	4.84256e-39
0.4137 	3.73514e-39
0.4144 	2.62771e-39
0.4151 	4.06559e-39
0.4158 	1.30189e-39
0.4165 	1.0937e-39
0.4172 	8.82753e-40
0.4179 	6.71807e-40
0.4186 	4.60861e-40
0.4193 	2.49914e-40
0.42 	6.60663e-40
0.4207 	9.02225e-41
0.4214 	7.46619e-41
0.4221 	5.88799e-41
0.4228 	4.30978e-41
0.4235 	2.73158e-41
0.4242 	1.15337e-41
0.4249 	3.50245e-41
0.4256 	1.89587e-42
0.4263 	1.567e-42
0.427 	1.2334e-42
0.4277 	8.9981e-43
0.4284 	5.66215e-43
0.4291 	2.32621e-43
0.4298 	6.49865e-43
0.4305 	9.98605e-45
0.4312 	8.29235e-45
0.4319 	6.56813e-45
0.4326 	4.84156e-45
0.4333 	3.11499e-45
0.434 	1.38842e-45
0.4347 	3.47634e-45
0.4354 	1.19941e-45
0.4361 	1.65439e-47
0.4368 	1.32247e-47
0.4375 	9.86867e-48
0.4382 	6.51268e-48
0.4389 	3.1567e-48
0.4396 	3.47113e-48
0.4403 	9.99641e-48
0.441 	2.3766e-50
0.4417 	1.9222e-50
0.4424 	1.4505e-50
0.4431 	9.78792e-51
0.4438 	5.07086e-51
0.4445 	3.53812e-52
0.4452 	1.31531e-50
0.4459 	1.61977e-53
0.4466 	1.3274e-53
0.4473 	1.01225e-53
0.448 	6.97107e-54
0.4487 	3.81961e-54
0.4494 	6.68148e-55
0.4501 	2.8763e-54
0.4508 	2.73891e-57
0.4515 	2.27236e-57
0.4522 	1.75043e-57
0.4529 	1.22851e-57
0.4536 	7.06578e-58
0.4543 	1.8465e-58
0.455 	3.14587e-58
0.4557 	2.84686e-61
0.4564 	2.38069e-61
0.4571 	1.85119e-61
0.4578 	1.32168e-61
0.4585 	7.92179e-62
0.4592 	2.62673e-62
0.4599 	1.83728e-62
0.4606 	2.47182e-65
0.4613 	2.08328e-65
0.462 	1.63415e-65
0.4627 	1.18501e-65
0.4634 	7.35878e-66
0.4641 	2.86742e-66
0.4648 	8.83167e-67
0.4655 	1.90218e-69
0.4662 	1.61066e-69
0.4669 	1.28217e-69
0.4676 	9.5083e-70
0.4683 	6.19492e-70
0.469 	2.88154e-70
0.4697 	3.76355e-70
0.4704 	1.42467e-70
0.4711 	1.60361e-71
0.4718 	1.3434e-71
0.4725 	1.12127e-71
0.4732 	8.99127e-72
0.4739 	6.76989e-72
0.4746 	4.75615e-71
0.4753 	1.25597e-70
0.476 	2.62446e-72
0.4767 	2.15781e-72
0.4774 	1.80995e-72
0.4781 	1.46209e-72
0.4788 	1.11423e-72
0.4795 	7.66372e-73
0.4802 	8.95856e-71
0.4809 	4.44515e-73
0.4816 	3.70648e-73
0.4823 	3.16978e-73
0.483 	2.63308e-73
0.4837 	2.09637e-73
0.4844 	1.55967e-73
0.4851 	5.1883e-71
0.4858 	9.79015e-74
0.4865 	8.44221e-74
0.4872 	7.45474e-74
0.4879 	6.46728e-74
0.4886 	5.47981e-74
0.4893 	4.49235e-74
0.49 	2.58209e-71
0.4907 	2.76775e-74
0.4914 	2.30381e-74
0.4921 	2.0024e-74
0.4928 	1.70098e-74
0.4935 	1.39956e-74
0.4942 	1.09815e-74
0.4949 	6.26652e-72
0.4956 	5.48934e-75
0.4963 	3.84335e-75
0.497 	3.02955e-75
0.4977 	2.21575e-75
0.4984 	1.40195e-75
0.4991 	5.88154e-76
0.4998 	8.4844e-73
0.5005 	-5.88215e-76
0.5012 	-2.07507e-75
0.5019 	-2.29207e-75
0.5026 	-2.41138e-75
0.5033 	-2.5307e-75
0.504 	-2.65001e-75
0.5047 	3.7477e-74
0.5054 	1.16389e-74
0.5061 	-6.58364e-75
0.5068 	-7.50034e-75
0.5075 	-7.53702e-75
0.5082 	-7.5737e-75
0.5089 	-7.61038e-75
0.5096 	-7.8624e-75
0.5103 	-8.30585e-75
0.511 	-1.64709e-74
0.5117 	-2.05767e-74
0.5124 	-2.07113e-74
0.5131 	-2.08459e-74
0.5138 	-2.09805e-74
0.5145 	-2.11151e-74
0.5152 	-2.77871e-74
0.5159 	-3.9163e-74
0.5166 	-5.33597e-74
0.5173 	-5.38043e-74
0.518 	-5.4249e-74
0.5187 	-5.46936e-74
0.5194 	-5.51382e-74
0.5201 	-7.88284e-74
0.5208 	-8.57946e-74
0.5215 	-1.24838e-73
0.5222 	-1.26013e-73
0.5229 	-1.27188e-73
0.5236 	-1.28363e-73
0.5243 	-1.29538e-73
0.525 	-1.992e-73
0.5257 	-1.72451e-73
0.5264 	-2.6273e-73
0.5271 	-2.65273e-73
0.5278 	-2.67816e-73
0.5285 	-2.7036e-73
0.5292 	-2.72903e-73
0.5299 	-3.86626e-73
0.5306 	-3.20621e-73
0.5313 	-5.05163e-73
0.532 	-5.09896e-73
0.5327 	-5.14629e-73
0.5334 	-5.19362e-73
0.5341 	-5.24096e-73
0.5348 	-6.81071e-73
0.5355 	-5.57528e-73
0.5362 	-8.78674e-73
0.5369 	-9.08946e-73
0.5376 	-9.16843e-73
0.5383 	-9.24741e-73
0.539 	-9.32639e-73
0.5397 	-1.10523e-72
0.5404 	-1.01505e-72
0.5411 	-1.40212e-72
0.5418 	-1.51565e-72
0.5425 	-1.52774e-72
0.5432 	-1.53984e-72
0.5439 	-1.55193e-72
0.5446 	-1.66396e-72
0.5453 	-1.85667e-72
0.546 	-2.11258e-72
0.5467 	-2.36449e-72
0.5474 	-2.38152e-72
0.5481 	-2.39855e-72
0.5488 	-2.41558e-72
0.5495 	-2.43261e-72
0.5502 	-3.14974e-72
0.5509 	-2.99891e-72
0.5516 	-3.42776e-72
0.5523 	-3.4494e-72
0.553 	-3.47103e-72
0.5537 	-3.49267e-72
0.5544 	-3.51431e-72
0.5551 	-4.92753e-72
0.5558 	-3.99711e-72
0.5565 	-4.57461e-72
0.5572 	-4.59852e-72
0.5579 	-4.62242e-72
0.5586 	-4.64632e-72
0.5593 	-4.67022e-72
0.56 	-7.04628e-72
0.5607 	-4.98589e-72
0.5614 	-5.57912e-72
0.5621 	-5.60077e-72
0.5628 	-5.62241e-72
0.5635 	-5.64406e-72
0.5642 	-5.66571e-72
0.5649 	-7.91014e-72
0.5656 	-5.80295e-72
0.5663 	-6.19836e-72
0.567 	-6.21243e-72
0.5677 	-6.2265e-72
0.5684 	-6.24056e-72
0.5691 	-6.25463e-72
0.5698 	-8.03113e-72
0.5705 	-6.28526e-72
0.5712 	-6.28007e-72
0.5719 	-6.28225e-72
0.5726 	-6.285e-72
0.5733 	-6.28775e-72
0.574 	-6.29049e-72
0.5747 	-7.37684e-72
0.5754 	-6.69263e-72
0.5761 	-5.91131e-72
0.5768 	-5.81562e-72
0.5775 	-5.80663e-72
0.5782 	-5.79764e-72
0.5789 	-5.78864e-72
0.5796 	-6.149e-72
0.5803 	-6.75573e-72
0.581 	-5.21749e-72
0.5817 	-4.95759e-72
0.5824 	-4.93972e-72
0.5831 	-4.92185e-72
0.5838 	-4.90398e-72
0.5845 	-4.88611e-72
0.5852 	-6.22754e-72
0.5859 	-4.33419e-72
0.5866 	-3.91783e-72
0.5873 	-3.89565e-72
0.588 	-3.87348e-72
0.5887 	-3.85131e-72
0.5894 	-3.82914e-72
0.5901 	-5.28649e-72
0.5908 	-3.39927e-72
0.5915 	-2.88976e-72
0.5922 	-2.86767e-72
0.5929 	-2.84558e-72
0.5936 	-2.82348e-72
0.5943 	-2.80139e-72
0.595 	-4.16615e-72
0.5957 	-2.52445e-72
0.5964 	-2.00224e-72
0.5971 	-1.98319e-72
0.5978 	-1.96414e-72
0.5985 	-1.94509e-72
0.5992 	-1.92604e-72
0.5999 	-2.65362e-72
0.6006 	-1.78046e-72
0.6013 	-1.31082e-72
0.602 	-1.29609e-72
0.6027 	-1.28136e-72
0.6034 	-1.26664e-72
0.6041 	-1.25191e-72
0.6048 	-1.58813e-72
0.6055 	-1.19609e-72
0.6062 	-8.39723e-73
0.6069 	-8.04586e-73
0.6076 	-7.94158e-73
0.6083 	-7.8373e-73
0.609 	-7.73303e-73
0.6097 	-8.96595e-73
0.6104 	-7.99059e-73
0.6111 	-5.32306e-73
0.6118 	-4.76505e-73
0.6125 	-4.69645e-73
0.6132 	-4.62786e-73
0.6139 	-4.55926e-73
0.6146 	-4.78834e-73
0.6153 	-5.19655e-73
0.616 	-3.2525e-73
0.6167 	-2.70191e-73
0.6174 	-2.65954e-73
0.6181 	-2.61717e-73
0.6188 	-2.57481e-73
0.6195 	-2.53244e-73
0.6202 	-3.21037e-73
0.6209 	-1.91688e-73
0.6216 	-1.47092e-73
0.6223 	-1.44616e-73
0.623 	-1.4214e-73
0.6237 	-1.39664e-73
0.6244 	-1.37187e-73
0.6251 	-1.89158e-73
0.6258 	-1.09027e-73
0.6265 	-7.70421e-74
0.6272 	-7.56644e-74
0.6279 	-7.42868e-74
0.6286 	-7.29091e-74
0.6293 	-7.15315e-74
0.63 	-1.06614e-73
0.6307 	-5.98701e-74
0.6314 	-3.88812e-74
0.6321 	-3.81485e-74
0.6328 	-3.74158e-74
0.6335 	-3.66831e-74
0.6342 	-3.59504e-74
0.6349 	-4.96061e-74
0.6356 	-3.17493e-74
0.6363 	-1.89275e-74
0.637 	-1.85538e-74
0.6377 	-1.81802e-74
0.6384 	-1.78065e-74
0.6391 	-1.74328e-74
0.6398 	-2.21178e-74
0.6405 	-1.62617e-74
0.6412 	-9.37352e-75
0.6419 	-8.71148e-75
0.6426 	-8.52836e-75
0.6433 	-8.34524e-75
0.644 	-8.16211e-75
0.6447 	-9.44497e-75
0.6454 	-8.33141e-75
0.6461 	-4.72933e-75
0.6468 	-3.95096e-75
0.6475 	-3.86458e-75
0.6482 	-3.77821e-75
0.6489 	-3.69184e-75
0.6496 	-3.85862e-75
0.6503 	-4.17784e-75
0.651 	-2.30629e-75
0.6517 	-1.73167e-75
0.6524 	-1.69242e-75
0.6531 	-1.65317e-75
0.6538 	-1.61392e-75
0.6545 	-1.57467e-75
0.6552 	-2.00573e-75
0.6559 	-1.08651e-75
0.6566 	-7.33776e-76
0.6573 	-7.16578e-76
0.658 	-6.99379e-76
0.6587 	-6.8218e-76
0.6594 	-6.64981e-76
0.6601 	-9.23712e-76
0.6608 	-4.94363e-76
0.6615 	-3.00741e-76
0.6622 	-2.9347e-76
0.6629 	-2.86199e-76
0.6636 	-2.78928e-76
0.6643 	-2.71657e-76
0.665 	-4.08762e-76
0.6657 	-2.17243e-76
0.6664 	-1.19283e-76
0.6671 	-1.16315e-76
0.6678 	-1.13348e-76
0.6685 	-1.1038e-76
0.6692 	-1.07413e-76
0.6699 	-1.49289e-76
0.6706 	-9.22193e-77
0.6713 	-4.58117e-77
0.672 	-4.46418e-77
0.6727 	-4.3472e-77
0.6734 	-4.23022e-77
0.6741 	-4.11324e-77
0.6748 	-5.24237e-77
0.6755 	-3.78305e-77
0.6762 	-1.84036e-77
0.6769 	-1.66021e-77
0.6776 	-1.61564e-77
0.6783 	-1.57106e-77
0.679 	-1.52649e-77
0.6797 	-1.76869e-77
0.6804 	-1.54912e-77
0.6811 	-7.68448e-78
0.6818 	-5.98669e-78
0.6825 	-5.82245e-78
0.6832 	-5.6582e-78
0.6839 	-5.49396e-78
0.6846 	-5.72658e-78
0.6853 	-6.2081e-78
0.686 	-3.08653e-78
0.6867 	-2.09461e-78
0.6874 	-2.03603e-78
0.6881 	-1.97746e-78
0.6888 	-1.91888e-78
0.6895 	-1.86031e-78
0.6902 	-2.38989e-78
0.6909 	-1.19429e-78
0.6916 	-7.1153e-79
0.6923 	-6.91299e-79
0.693 	-6.71068e-79
0.6937 	-6.50836e-79
0.6944 	-6.30605e-79
0.6951 	-8.85953e-79
0.6958 	-4.85129e-79
0.6965 	-3.27156e-79
0.6972 	-3.22053e-79
0.6979 	-3.16949e-79
0.6986 	-3.11846e-79
0.6993 	-3.06742e-79
0.7 	-4.79543e-79
