0 	1
0.0007 	1
0.0014 	1
0.0021 	1
0.0028 	1
0.0035 	1
0.0042 	1
0.0049 	1
0.0056 	1
0.0063 	1
0.007 	1
0.0077 	1
0.0084 	1
0.0091 	1
0.0098 	1
0.0105 	1
0.0112 	1
0.0119 	1
0.0126 	1
0.0133 	1
0.014 	1
0.0147 	1
0.0154 	1
0.0161 	1
0.0168 	1
0.0175 	1
0.0182 	1
0.0189 	1
0.0196 	1
0.0203 	1
0.021 	1
0.0217 	1
0.0224 	1
0.0231 	1
0.0238 	1
0.0245 	1
0.0252 	1
0.0259 	1
0.0266 	1
0.0273 	1
0.028 	1
0.0287 	1
0.0294 	1
0.0301 	1
0.0308 	1
0.0315 	1
0.0322 	1
0.0329 	1
0.0336 	1
0.0343 	1
0.035 	1
0.0357 	1
0.0364 	1
0.0371 	1
0.0378 	1
0.0385 	1
0.0392 	1
0.0399 	1
0.0406 	1
0.0413 	1
0.042 	1
0.0427 	1
0.0434 	1
0.0441 	1
0.0448 	1
0.0455 	1
0.0462 	1
0.0469 	1
0.0476 	1
0.0483 	1
0.049 	1
0.0497 	1
0.0504 	1
0.0511 	1
0.0518 	1
0.0525 	1
0.0532 	1
0.0539 	1
0.0546 	1
0.0553 	1
0.056 	1
0.0567 	1
0.0574 	1
0.0581 	1
0.0588 	1
0.0595 	1
0.0602 	1
0.0609 	1
0.0616 	1
0.0623 	1
0.063 	1
0.0637 	1
0.0644 	1
0.0651 	1
0.0658 	1
0.0665 	1
0.0672 	1
0.0679 	1
0.0686 	1
0.0693 	1
0.07 	1
0.0707 	1
0.0714 	1
0.0721 	1
0.0728 	1
0.0735 	1
0.0742 	1
0.0749 	1
0.0756 	1
0.0763 	1
0.077 	1
0.0777 	1
0.0784 	1
0.0791 	1
0.0798 	1
0.0805 	1
0.0812 	1
0.0819 	1
0.0826 	1
0.0833 	1
0.084 	1
0.0847 	1
0.0854 	1
0.0861 	1
0.0868 	1
0.0875 	1
0.0882 	1
0.0889 	1
0.0896 	1
0.0903 	1
0.091 	1
0.0917 	1
0.0924 	1
0.0931 	1
0.0938 	1
0.0945 	1
0.0952 	1
0.0959 	1
0.0966 	1
0.0973 	1
0.098 	1
0.0987 	1
0.0994 	1
0.1001 	1
0.1008 	1
0.1015 	1
0.1022 	1
0.1029 	1
0.1036 	1
0.1043 	1
0.105 	1
0.1057 	1
0.1064 	1
0.1071 	1
0.1078 	1
0.1085 	1
0.1092 	1
0.1099 	1
0.1106 	1
0.1113 	1
0.112 	1
0.1127 	1
0.1134 	1
0.1141 	1
0.1148 	1
0.1155 	1
0.1162 	1
0.1169 	1
0.1176 	1
0.1183 	1
0.119 	1
0.1197 	1
0.1204 	1
0.1211 	1
0.1218 	1
0.1225 	1
0.1232 	1
0.1239 	1
0.1246 	1
0.1253 	1
0.126 	1
0.1267 	1
0.1274 	1
0.1281 	1
0.1288 	1
0.1295 	1
0.1302 	1
0.1309 	1
0.1316 	1
0.1323 	1
0.133 	1
0.1337 	1
0.1344 	1
0.1351 	1
0.1358 	1
0.1365 	1
0.1372 	1
0.1379 	1
0.1386 	1
0.1393 	1
0.14 	1
0.1407 	1
0.1414 	1
0.1421 	1
0.1428 	1
0.1435 	1
0.1442 	1
0.1449 	1
0.1456 	1
0.1463 	1
0.147 	1
0.1477 	1
0.1484 	1
0.1491 	1
0.1498 	1
0.1505 	1
0.1512 	1
0.1519 	1
0.1526 	1
0.1533 	1
0.154 	1
0.1547 	1
0.1554 	1
0.1561 	1
0.1568 	1
0.1575 	1
0.1582 	1
0.1589 	1
0.1596 	1
0.1603 	1
0.161 	1
0.1617 	0.999992
0.1624 	0.999981
0.1631 	0.999969
0.1638 	0.999957
0.1645 	0.999934
0.1652 	0.999911
0.1659 	0.999885
0.1666 	0.999387
0.1673 	0.998387
0.168 	0.997388
0.1687 	0.996388
0.1694 	0.994606
0.1701 	0.992734
0.1708 	0.990687
0.1715 	0.98367
0.1722 	0.967133
0.1729 	0.950596
0.1736 	0.934059
0.1743 	0.907545
0.175 	0.878311
0.1757 	0.846283
0.1764 	0.808757
0.1771 	0.75032
0.1778 	0.691883
0.1785 	0.633446
0.1792 	0.558947
0.1799 	0.475525
0.1806 	0.388105
0.1813 	0.302403
0.182 	0.249304
0.1827 	0.196271
0.1834 	0.143239
0.1841 	0.1069
0.1848 	0.0872559
0.1855 	0.0660151
0.1862 	0.0441356
0.1869 	0.0326043
0.1876 	0.0220529
0.1883 	0.0115014
0.189 	0.00444038
0.1897 	0.00366219
0.1904 	0.00278909
0.1911 	0.00184481
0.1918 	0.0012994
0.1925 	0.000880371
0.1932 	0.000461339
0.1939 	0.000127457
0.1946 	0.000105807
0.1953 	8.29433e-05
0.196 	5.84626e-05
0.1967 	4.16456e-05
0.1974 	2.91367e-05
0.1981 	1.66277e-05
0.1988 	4.95209e-06
0.1995 	4.11041e-06
0.2002 	3.25037e-06
0.2009 	2.34445e-06
0.2016 	1.65333e-06
0.2023 	1.17058e-06
0.203 	6.87818e-07
0.2037 	2.0506e-07
0.2044 	1.43854e-07
0.2051 	1.1472e-07
0.2058 	8.34448e-08
0.2065 	5.75547e-08
0.2072 	4.11395e-08
0.2079 	2.47243e-08
0.2086 	8.30903e-09
0.2093 	4.16362e-09
0.21 	3.36467e-09
0.2107 	2.48152e-09
0.2114 	1.69072e-09
0.2121 	1.22502e-09
0.2128 	7.59314e-10
0.2135 	2.93611e-10
0.2142 	1.14639e-10
0.2149 	9.49681e-11
0.2156 	7.32394e-11
0.2163 	5.19711e-11
0.217 	3.9879e-11
0.2177 	2.77502e-11
0.2184 	1.56214e-11
0.2191 	9.11526e-12
0.2198 	8.23182e-12
0.2205 	7.26976e-12
0.2212 	6.27625e-12
0.2219 	5.60951e-12
0.2226 	4.96149e-12
0.2233 	4.31346e-12
0.224 	3.81052e-12
0.2247 	3.56872e-12
0.2254 	3.2965e-12
0.2261 	3.00146e-12
0.2268 	2.76471e-12
0.2275 	2.54493e-12
0.2282 	2.32515e-12
0.2289 	2.11945e-12
0.2296 	1.9654e-12
0.2303 	1.79529e-12
0.231 	1.60379e-12
0.2317 	1.45071e-12
0.2324 	1.32188e-12
0.2331 	1.19305e-12
0.2338 	1.06723e-12
0.2345 	9.80482e-13
0.2352 	8.86959e-13
0.2359 	7.76502e-13
0.2366 	6.86281e-13
0.2373 	6.18934e-13
0.238 	5.51588e-13
0.2387 	4.84242e-13
0.2394 	4.43156e-13
0.2401 	4.02244e-13
0.2408 	3.50257e-13
0.2415 	3.05289e-13
0.2422 	2.74793e-13
0.2429 	2.44298e-13
0.2436 	2.13802e-13
0.2443 	1.94268e-13
0.245 	1.77722e-13
0.2457 	1.54564e-13
0.2464 	1.33205e-13
0.2471 	1.19841e-13
0.2478 	1.06477e-13
0.2485 	9.31129e-14
0.2492 	8.37816e-14
0.2499 	7.66908e-14
0.2506 	6.68922e-14
0.2513 	5.68496e-14
0.252 	5.09722e-14
0.2527 	4.51179e-14
0.2534 	3.92636e-14
0.2541 	3.4824e-14
0.2548 	3.17991e-14
0.2555 	2.77932e-14
0.2562 	2.33949e-14
0.2569 	2.07119e-14
0.2576 	1.82167e-14
0.2583 	1.57214e-14
0.259 	1.36766e-14
0.2597 	1.24425e-14
0.2604 	1.08971e-14
0.2611 	9.11828e-15
0.2618 	7.9295e-15
0.2625 	6.92566e-15
0.2632 	5.92183e-15
0.2639 	5.03244e-15
0.2646 	4.56269e-15
0.2653 	4.00729e-15
0.266 	3.33768e-15
0.2667 	2.85035e-15
0.2674 	2.47416e-15
0.2681 	2.09798e-15
0.2688 	1.73678e-15
0.2695 	1.57056e-15
0.2702 	1.38471e-15
0.2709 	1.14979e-15
0.2716 	9.64605e-16
0.2723 	8.33116e-16
0.273 	7.01627e-16
0.2737 	5.70138e-16
0.2744 	5.09642e-16
0.2751 	4.51421e-16
0.2758 	3.74079e-16
0.2765 	3.08368e-16
0.2772 	2.65234e-16
0.2779 	2.22099e-16
0.2786 	1.78964e-16
0.2793 	1.5625e-16
0.28 	1.39107e-16
0.2807 	1.15079e-16
0.2814 	9.31786e-17
0.2821 	7.98443e-17
0.2828 	6.651e-17
0.2835 	5.31757e-17
0.2842 	4.51841e-17
0.2849 	4.01608e-17
0.2856 	3.34049e-17
0.2863 	2.65431e-17
0.287 	2.26606e-17
0.2877 	1.87794e-17
0.2884 	1.48982e-17
0.2891 	1.2268e-17
0.2898 	1.08887e-17
0.2905 	9.10806e-18
0.2912 	7.16691e-18
0.2919 	6.03398e-18
0.2926 	4.9756e-18
0.2933 	3.91721e-18
0.294 	3.1108e-18
0.2947 	2.75793e-18
0.2954 	2.32109e-18
0.2961 	1.82128e-18
0.2968 	1.50012e-18
0.2975 	1.23138e-18
0.2982 	9.62636e-19
0.2989 	7.33548e-19
0.2996 	6.49874e-19
0.3003 	5.50754e-19
0.301 	4.31041e-19
0.3017 	3.46922e-19
0.3024 	2.83682e-19
0.3031 	2.20443e-19
0.3038 	1.60411e-19
0.3045 	1.42084e-19
0.3052 	1.21391e-19
0.3059 	9.47842e-20
0.3066 	7.4436e-20
0.3073 	6.06832e-20
0.308 	4.69304e-20
0.3087 	3.31776e-20
0.3094 	2.87609e-20
0.3101 	2.48078e-20
0.3108 	1.93279e-20
0.3115 	1.47817e-20
0.3122 	1.20226e-20
0.3129 	9.26357e-21
0.3136 	6.50453e-21
0.3143 	5.37465e-21
0.315 	4.68912e-21
0.3157 	3.64547e-21
0.3164 	2.7082e-21
0.3171 	2.19882e-21
0.3178 	1.68943e-21
0.3185 	1.18005e-21
0.3192 	9.23441e-22
0.3199 	8.07261e-22
0.3206 	6.33728e-22
0.3213 	4.55948e-22
0.322 	3.69729e-22
0.3227 	2.8351e-22
0.3234 	1.97291e-22
0.3241 	1.45214e-22
0.3248 	1.27281e-22
0.3255 	1.01123e-22
0.3262 	7.16747e-23
0.3269 	5.69144e-23
0.3276 	4.35989e-23
0.3283 	3.02833e-23
0.329 	2.08258e-23
0.3297 	1.83131e-23
0.3304 	1.47651e-23
0.3311 	1.04408e-23
0.3318 	7.99754e-24
0.3325 	6.12891e-24
0.3332 	4.26029e-24
0.3339 	2.72362e-24
0.3346 	2.40414e-24
0.3353 	1.9734e-24
0.336 	1.39431e-24
0.3367 	1.02726e-24
0.3374 	7.89353e-25
0.3381 	5.5145e-25
0.3388 	3.27887e-25
0.3395 	2.90765e-25
0.3402 	2.43897e-25
0.3409 	1.72661e-25
0.3416 	1.22217e-25
0.3423 	9.45874e-26
0.343 	6.69579e-26
0.3437 	3.93284e-26
0.3444 	3.35757e-26
0.3451 	2.89016e-26
0.3458 	2.06008e-26
0.3465 	1.40565e-26
0.3472 	1.10514e-26
0.3479 	8.04621e-27
0.3486 	5.04105e-27
0.3493 	4.03715e-27
0.35 	3.57906e-27
0.3507 	2.5857e-27
0.3514 	1.71564e-27
0.3521 	1.38484e-27
0.3528 	1.05403e-27
0.3535 	7.23232e-28
0.3542 	5.66728e-28
0.3549 	5.0706e-28
0.3556 	3.80546e-28
0.3563 	2.46803e-28
0.357 	2.04322e-28
0.3577 	1.61841e-28
0.3584 	1.1936e-28
0.3591 	9.33819e-29
0.3598 	8.39069e-29
0.3605 	6.49812e-29
0.3612 	4.22753e-29
0.3619 	3.39131e-29
0.3626 	2.71786e-29
0.3633 	2.0444e-29
0.364 	1.55407e-29
0.3647 	1.39339e-29
0.3654 	1.10391e-29
0.3661 	7.17818e-30
0.3668 	5.39706e-30
0.3675 	4.28576e-30
0.3682 	3.17447e-30
0.3689 	2.25156e-30
0.3696 	2.01943e-30
0.3703 	1.63924e-30
0.371 	1.06164e-30
0.3717 	7.40741e-31
0.3724 	5.80666e-31
0.3731 	4.20591e-31
0.3738 	2.70056e-31
0.3745 	2.43554e-31
0.3752 	2.04108e-31
0.3759 	1.32307e-31
0.3766 	8.54882e-32
0.3773 	6.6518e-32
0.378 	4.75478e-32
0.3787 	2.85776e-32
0.3794 	2.48727e-32
0.3801 	2.16271e-32
0.3808 	1.40909e-32
0.3815 	8.42242e-33
0.3822 	6.5331e-33
0.3829 	4.64378e-33
0.3836 	2.75446e-33
0.3843 	2.18769e-33
0.385 	1.98164e-33
0.3857 	1.30028e-33
0.3864 	7.1691e-34
0.3871 	5.54944e-34
0.3878 	3.92978e-34
0.3885 	2.31012e-34
0.3892 	1.64194e-34
0.3899 	1.50236e-34
0.3906 	1.02924e-34
0.3913 	5.19647e-35
0.392 	4.01203e-35
0.3927 	2.8276e-35
0.3934 	1.64316e-35
0.3941 	1.01444e-35
0.3948 	9.41468e-36
0.3955 	6.7647e-36
0.3962 	3.34662e-36
0.3969 	2.37689e-36
0.3976 	1.66585e-36
0.3983 	9.54819e-37
0.399 	4.88684e-37
0.3997 	4.63382e-37
0.4004 	3.52214e-37
0.4011 	1.76647e-37
0.4018 	1.09635e-37
0.4025 	7.64949e-38
0.4032 	4.3355e-38
0.4039 	1.72408e-38
0.4046 	1.68878e-38
0.4053 	1.37779e-38
0.406 	6.99218e-39
0.4067 	3.71334e-39
0.4074 	2.58544e-39
0.4081 	1.45755e-39
0.4088 	4.11114e-40
0.4095 	4.23731e-40
0.4102 	3.79834e-40
0.4109 	1.94658e-40
0.4116 	8.54989e-41
0.4123 	5.95481e-41
0.413 	3.35972e-41
0.4137 	7.64642e-42
0.4144 	6.48703e-42
0.4151 	6.66656e-42
0.4158 	3.43671e-42
0.4165 	1.17065e-42
0.4172 	8.18243e-43
0.4179 	4.65831e-43
0.4186 	1.13419e-43
0.4193 	4.85784e-44
0.42 	6.21684e-44
0.4207 	3.21328e-44
0.4214 	7.4556e-45
0.4221 	5.25643e-45
0.4228 	3.05725e-45
0.4235 	8.58071e-46
0.4242 	1.20128e-46
0.4249 	1.93997e-46
0.4256 	1.14309e-46
0.4263 	1.41201e-47
0.427 	1.00926e-47
0.4277 	6.065e-48
0.4284 	2.03742e-48
0.4291 	5.90984e-50
0.4298 	1.30057e-49
0.4305 	9.26076e-50
0.4312 	1.17941e-50
0.4319 	3.27877e-51
0.4326 	2.03881e-51
0.4333 	7.98856e-52
0.434 	5.12212e-54
0.4347 	1.46048e-53
0.4354 	1.28538e-53
0.4361 	2.67745e-54
0.4368 	2.4208e-55
0.4375 	1.55216e-55
0.4382 	6.83518e-56
0.4389 	2.31572e-58
0.4396 	8.41494e-58
0.4403 	9.11359e-58
0.441 	2.61148e-58
0.4417 	1.47756e-59
0.4424 	9.73229e-60
0.4431 	4.68901e-60
0.4438 	8.53405e-63
0.4445 	4.48538e-62
0.4452 	5.97362e-62
0.4459 	2.10256e-62
0.4466 	9.29377e-64
0.4473 	6.27141e-64
0.448 	3.24905e-64
0.4487 	2.2669e-65
0.4494 	3.03706e-66
0.4501 	4.48215e-66
0.4508 	1.94927e-66
0.4515 	2.5954e-67
0.4522 	1.80168e-67
0.4529 	1.00796e-67
0.4536 	2.14248e-68
0.4543 	3.83334e-69
0.455 	3.09133e-69
0.4557 	2.09739e-69
0.4564 	1.23503e-69
0.4571 	8.70449e-70
0.4578 	5.05864e-70
0.4585 	1.41279e-70
0.4592 	9.75063e-72
0.4599 	7.70014e-72
0.4606 	5.30593e-72
0.4613 	2.95755e-72
0.462 	2.1144e-72
0.4627 	1.27126e-72
0.4634 	4.28108e-73
0.4641 	5.01775e-75
0.4648 	1.98947e-75
0.4655 	1.33158e-75
0.4662 	1.62184e-75
0.4669 	1.21007e-75
0.4676 	7.50998e-76
0.4683 	2.91923e-76
0.469 	-1.21955e-75
0.4697 	-4.62539e-75
0.4704 	-4.13891e-75
0.4711 	-7.33191e-76
0.4718 	-3.99244e-78
0.4725 	-4.99273e-78
0.4732 	-5.99301e-78
0.4739 	-6.25424e-76
0.4746 	-3.51248e-75
0.4753 	-3.92497e-75
0.476 	-1.03804e-75
0.4767 	-6.85442e-78
0.4774 	-6.57299e-78
0.4781 	-6.29155e-78
0.4788 	-1.80591e-76
0.4795 	-2.62456e-75
0.4802 	-3.672e-75
0.4809 	-1.22815e-75
0.4816 	-6.48344e-78
0.4823 	-6.21493e-78
0.483 	-5.94643e-78
0.4837 	-5.67792e-78
0.4844 	-1.98343e-75
0.4851 	-3.50481e-75
0.4858 	-1.37498e-75
0.4865 	-6.07922e-78
0.4872 	-5.83759e-78
0.4879 	-5.59595e-78
0.4886 	-5.35432e-78
0.4893 	-1.60913e-75
0.49 	-3.65037e-75
0.4907 	-1.60917e-75
0.4914 	-5.45142e-78
0.4921 	-5.26187e-78
0.4928 	-5.07231e-78
0.4935 	-4.88276e-78
0.4942 	-1.61123e-75
0.4949 	-4.11012e-75
0.4956 	-2.32522e-75
0.4963 	-4.87592e-78
0.497 	-5.16297e-78
0.4977 	-5.45003e-78
0.4984 	-5.73708e-78
0.4991 	-1.44332e-75
0.4998 	-4.3182e-75
0.5005 	-3.08795e-75
0.5012 	-2.15652e-76
0.5019 	-1.24101e-77
0.5026 	-1.34986e-77
0.5033 	-1.45871e-77
0.504 	-9.46602e-76
0.5047 	-3.56198e-75
0.5054 	-3.18981e-75
0.5061 	-5.76973e-76
0.5068 	-2.11829e-77
0.5075 	-2.16905e-77
0.5082 	-2.21981e-77
0.5089 	-4.88057e-76
0.5096 	-2.68452e-75
0.5103 	-2.99813e-75
0.511 	-8.01264e-76
0.5117 	-2.21484e-77
0.5124 	-2.20917e-77
0.5131 	-2.20351e-77
0.5138 	-1.45492e-76
0.5145 	-1.96826e-75
0.5152 	-2.74921e-75
0.5159 	-9.25621e-76
0.5166 	-2.03682e-77
0.5173 	-2.023e-77
0.518 	-2.00919e-77
0.5187 	-1.99537e-77
0.5194 	-1.47821e-75
0.5201 	-2.60584e-75
0.5208 	-1.02627e-75
0.5215 	-1.83141e-77
0.5222 	-1.82013e-77
0.5229 	-1.80884e-77
0.5236 	-1.79756e-77
0.5243 	-1.13366e-75
0.525 	-2.56492e-75
0.5257 	-1.13308e-75
0.5264 	-1.64711e-77
0.5271 	-1.64201e-77
0.5278 	-1.63691e-77
0.5285 	-1.63181e-77
0.5292 	-8.12824e-76
0.5299 	-2.06631e-75
0.5306 	-1.17074e-75
0.5313 	-1.52848e-77
0.532 	-1.53718e-77
0.5327 	-1.54589e-77
0.5334 	-1.5546e-77
0.5341 	-5.32808e-76
0.5348 	-1.58537e-75
0.5355 	-1.13464e-75
0.5362 	-8.26031e-77
0.5369 	-1.5957e-77
0.5376 	-1.60019e-77
0.5383 	-1.60467e-77
0.539 	-3.16014e-76
0.5397 	-1.17949e-75
0.5404 	-1.05591e-75
0.5411 	-1.92037e-76
0.5418 	-1.46912e-77
0.5425 	-1.46026e-77
0.5432 	-1.4514e-77
0.5439 	-1.51965e-76
0.5446 	-8.28216e-76
0.5453 	-9.24693e-76
0.546 	-2.48136e-76
0.5467 	-1.32487e-77
0.5474 	-1.31339e-77
0.5481 	-1.30192e-77
0.5488 	-4.30369e-77
0.5495 	-5.50368e-76
0.5502 	-7.67653e-76
0.5509 	-2.59824e-76
0.5516 	-1.14331e-77
0.5523 	-1.1278e-77
0.553 	-1.11228e-77
0.5537 	-1.09677e-77
0.5544 	-3.43357e-76
0.5551 	-6.02645e-76
0.5558 	-2.38997e-76
0.5565 	-9.50293e-78
0.5572 	-9.31969e-78
0.5579 	-9.13645e-78
0.5586 	-8.95322e-78
0.5593 	-2.01323e-76
0.56 	-4.5072e-76
0.5607 	-2.00644e-76
0.5614 	-7.32304e-78
0.5621 	-7.12703e-78
0.5628 	-6.93102e-78
0.5635 	-6.735e-78
0.5642 	-1.10436e-76
0.5649 	-2.75785e-76
0.5656 	-1.57134e-76
0.5663 	-5.26597e-78
0.567 	-5.09634e-78
0.5677 	-4.9267e-78
0.5684 	-4.75707e-78
0.5691 	-5.60774e-77
0.5698 	-1.6235e-76
0.5705 	-1.16445e-76
0.5712 	-9.66846e-78
0.5719 	-3.47098e-78
0.5726 	-3.34086e-78
0.5733 	-3.21075e-78
0.574 	-2.56962e-77
0.5747 	-9.21034e-77
0.5754 	-8.24062e-77
0.5761 	-1.56307e-77
0.5768 	-2.27146e-78
0.5775 	-2.1784e-78
0.5782 	-2.08534e-78
0.5789 	-9.9372e-78
0.5796 	-5.03637e-77
0.5803 	-5.603e-77
0.581 	-1.53495e-77
0.5817 	-1.43493e-78
0.5824 	-1.37187e-78
0.5831 	-1.30881e-78
0.5838 	-2.50459e-78
0.5845 	-2.65164e-77
0.5852 	-3.67594e-77
0.5859 	-1.25807e-77
0.5866 	-8.78187e-79
0.5873 	-8.37356e-79
0.588 	-7.96524e-79
0.5887 	-7.55693e-79
0.5894 	-1.34093e-77
0.5901 	-2.33454e-77
0.5908 	-9.30847e-78
0.5915 	-5.22259e-79
0.5922 	-4.96831e-79
0.5929 	-4.71403e-79
0.5936 	-4.45974e-79
0.5943 	-6.4845e-78
0.595 	-1.43879e-77
0.5957 	-6.42042e-78
0.5964 	-3.02543e-79
0.5971 	-2.87234e-79
0.5978 	-2.71926e-79
0.5985 	-2.56618e-79
0.5992 	-2.97564e-78
0.5999 	-7.36275e-78
0.6006 	-4.1967e-78
0.6013 	-1.71042e-79
0.602 	-1.62098e-79
0.6027 	-1.53155e-79
0.6034 	-1.44211e-79
0.6041 	-1.27781e-78
0.6048 	-3.662e-78
0.6055 	-2.62472e-78
0.6062 	-2.18841e-79
0.6069 	-8.94161e-80
0.6076 	-8.43309e-80
0.6083 	-7.92457e-80
0.609 	-4.99422e-79
0.6097 	-1.76841e-78
0.6104 	-1.5802e-78
0.6111 	-2.9909e-79
0.6118 	-4.82525e-80
0.6125 	-4.54324e-80
0.6132 	-4.26122e-80
0.6139 	-1.6613e-79
0.6146 	-8.27665e-79
0.6153 	-9.19335e-79
0.616 	-2.51184e-79
0.6167 	-2.54826e-80
0.6174 	-2.39549e-80
0.6181 	-2.24271e-80
0.6188 	-3.66986e-80
0.6195 	-3.74329e-79
0.6202 	-5.18019e-79
0.6209 	-1.76858e-79
0.6216 	-1.31661e-80
0.6223 	-1.23568e-80
0.623 	-1.15475e-80
0.6237 	-1.07382e-80
0.6244 	-1.6283e-79
0.6251 	-2.82932e-79
0.6258 	-1.12579e-79
0.6265 	-6.64754e-81
0.6272 	-6.2282e-81
0.6279 	-5.80887e-81
0.6286 	-5.38954e-81
0.6293 	-6.76219e-80
0.63 	-1.49692e-79
0.6307 	-6.66819e-80
0.6314 	-3.27243e-81
0.6321 	-3.06008e-81
0.6328 	-2.84773e-81
0.6335 	-2.63537e-81
0.6342 	-2.64989e-80
0.6349 	-6.53694e-80
0.6356 	-3.72035e-80
0.6363 	-1.56497e-81
0.637 	-1.46007e-81
0.6377 	-1.35518e-81
0.6384 	-1.25028e-81
0.6391 	-9.61323e-81
0.6398 	-2.74272e-80
0.6405 	-1.96306e-80
0.6412 	-1.58986e-81
0.6419 	-6.72861e-82
0.6426 	-6.22514e-82
0.6433 	-5.72168e-82
0.644 	-3.12084e-81
0.6447 	-1.09668e-80
0.6454 	-9.78521e-81
0.6461 	-1.8329e-81
0.6468 	-2.97318e-82
0.6475 	-2.73978e-82
0.6482 	-2.50638e-82
0.6489 	-8.43129e-82
0.6496 	-4.13512e-81
0.6503 	-4.5849e-81
0.651 	-1.24506e-81
0.6517 	-1.24807e-82
0.6524 	-1.14444e-82
0.6531 	-1.04081e-82
0.6538 	-1.49339e-82
0.6545 	-1.45087e-81
0.6552 	-2.00283e-81
0.6559 	-6.80846e-82
0.6566 	-4.92089e-83
0.6573 	-4.4851e-83
0.658 	-4.04931e-83
0.6587 	-3.61352e-83
0.6594 	-4.6594e-82
0.6601 	-8.06583e-82
0.6608 	-3.19854e-82
0.6615 	-1.79782e-83
0.6622 	-1.62662e-83
0.6629 	-1.45543e-83
0.6636 	-1.28423e-83
0.6643 	-1.34159e-82
0.665 	-2.95227e-82
0.6657 	-1.31136e-82
0.6664 	-5.98881e-84
0.6671 	-5.37096e-84
0.6678 	-4.75311e-84
0.6685 	-4.13526e-84
0.6692 	-3.37259e-83
0.6699 	-8.24236e-83
0.6706 	-4.67755e-83
0.6713 	-1.78413e-84
0.672 	-1.58332e-84
0.6727 	-1.3825e-84
0.6734 	-1.18168e-84
0.6741 	-7.1394e-84
0.6748 	-2.00598e-83
0.6755 	-1.43108e-83
0.6762 	-1.09405e-84
0.6769 	-4.06794e-85
0.6776 	-3.49425e-85
0.6783 	-2.92056e-85
0.679 	-1.20573e-84
0.6797 	-4.12521e-84
0.6804 	-3.66559e-84
0.6811 	-6.71635e-85
0.6818 	-8.83212e-86
0.6825 	-7.43524e-86
0.6832 	-6.03836e-86
0.6839 	-1.47722e-85
0.6846 	-6.87081e-85
0.6853 	-7.57557e-85
0.686 	-2.02854e-85
0.6867 	-1.55409e-86
0.6874 	-1.27595e-86
0.6881 	-9.97811e-87
0.6888 	-1.03784e-86
0.6895 	-8.70813e-86
0.6902 	-1.19257e-85
0.6909 	-4.0116e-86
0.6916 	-2.08499e-87
0.6923 	-1.65872e-87
0.693 	-1.23245e-87
0.6937 	-8.06175e-88
0.6944 	-7.57546e-87
0.6951 	-1.29621e-86
0.6958 	-5.09667e-87
0.6965 	-1.98943e-88
0.6972 	-1.56159e-88
0.6979 	-1.13376e-88
0.6986 	-7.05923e-89
0.6993 	-7.0656e-88
0.7 	-1.56388e-87
