0 	1
0.0007 	1
0.0014 	1
0.0021 	1
0.0028 	1
0.0035 	1
0.0042 	1
0.0049 	1
0.0056 	1
0.0063 	1
0.007 	1
0.0077 	1
0.0084 	1
0.0091 	1
0.0098 	1
0.0105 	1
0.0112 	1
0.0119 	1
0.0126 	1
0.0133 	1
0.014 	1
0.0147 	1
0.0154 	1
0.0161 	1
0.0168 	1
0.0175 	1
0.0182 	1
0.0189 	1
0.0196 	1
0.0203 	1
0.021 	1
0.0217 	1
0.0224 	1
0.0231 	1
0.0238 	1
0.0245 	1
0.0252 	1
0.0259 	1
0.0266 	1
0.0273 	1
0.028 	1
0.0287 	1
0.0294 	1
0.0301 	1
0.0308 	1
0.0315 	1
0.0322 	1
0.0329 	1
0.0336 	1
0.0343 	1
0.035 	1
0.0357 	1
0.0364 	1
0.0371 	1
0.0378 	1
0.0385 	1
0.0392 	1
0.0399 	1
0.0406 	1
0.0413 	1
0.042 	1
0.0427 	1
0.0434 	1
0.0441 	1
0.0448 	1
0.0455 	1
0.0462 	1
0.0469 	1
0.0476 	1
0.0483 	1
0.049 	1
0.0497 	1
0.0504 	1
0.0511 	1
0.0518 	1
0.0525 	1
0.0532 	1
0.0539 	1
0.0546 	1
0.0553 	1
0.056 	1
0.0567 	1
0.0574 	1
0.0581 	1
0.0588 	1
0.0595 	1
0.0602 	1
0.0609 	1
0.0616 	1
0.0623 	1
0.063 	1
0.0637 	1
0.0644 	1
0.0651 	1
0.0658 	1
0.0665 	1
0.0672 	1
0.0679 	1
0.0686 	1
0.0693 	1
0.07 	1
0.0707 	1
0.0714 	1
0.0721 	1
0.0728 	1
0.0735 	1
0.0742 	1
0.0749 	1
0.0756 	1
0.0763 	1
0.077 	1
0.0777 	1
0.0784 	1
0.0791 	1
0.0798 	1
0.0805 	1
0.0812 	1
0.0819 	1
0.0826 	1
0.0833 	1
0.084 	1
0.0847 	1
0.0854 	1
0.0861 	1
0.0868 	1
0.0875 	1
0.0882 	1
0.0889 	1
0.0896 	1
0.0903 	1
0.091 	1
0.0917 	1
0.0924 	1
0.0931 	1
0.0938 	1
0.0945 	1
0.0952 	1
0.0959 	1
0.0966 	1
0.0973 	1
0.098 	1
0.0987 	1
0.0994 	1
0.1001 	1
0.1008 	1
0.1015 	1
0.1022 	1
0.1029 	1
0.1036 	1
0.1043 	1
0.105 	1
0.1057 	1
0.1064 	1
0.1071 	1
0.1078 	1
0.1085 	1
0.1092 	1
0.1099 	1
0.1106 	1
0.1113 	1
0.112 	1
0.1127 	1
0.1134 	1
0.1141 	1
0.1148 	1
0.1155 	1
0.1162 	1
0.1169 	1
0.1176 	1
0.1183 	1
0.119 	1
0.1197 	1
0.1204 	1
0.1211 	1
0.1218 	1
0.1225 	1
0.1232 	1
0.1239 	1
0.1246 	1
0.1253 	1
0.126 	1
0.1267 	1
0.1274 	1
0.1281 	1
0.1288 	1
0.1295 	1
0.1302 	1
0.1309 	1
0.1316 	1
0.1323 	1
0.133 	1
0.1337 	1
0.1344 	1
0.1351 	1
0.1358 	1
0.1365 	1
0.1372 	1
0.1379 	1
0.1386 	1
0.1393 	1
0.14 	1
0.1407 	1
0.1414 	1
0.1421 	1
0.1428 	1
0.1435 	1
0.1442 	1
0.1449 	1
0.1456 	1
0.1463 	1
0.147 	1
0.1477 	1
0.1484 	1
0.1491 	1
0.1498 	1
0.1505 	1
0.1512 	1
0.1519 	1
0.1526 	1
0.1533 	1
0.154 	1
0.1547 	1
0.1554 	1
0.1561 	1
0.1568 	1
0.1575 	1
0.1582 	1
0.1589 	1
0.1596 	1
0.1603 	1
0.161 	1
0.1617 	1
0.1624 	1
0.1631 	1
0.1638 	1
0.1645 	1
0.1652 	1
0.1659 	1
0.1666 	1
0.1673 	1
0.168 	1
0.1687 	1
0.1694 	1
0.1701 	1
0.1708 	1
0.1715 	1
0.1722 	1
0.1729 	1
0.1736 	1
0.1743 	1
0.175 	1
0.1757 	1
0.1764 	1
0.1771 	1
0.1778 	1
0.1785 	1
0.1792 	1
0.1799 	1
0.1806 	1
0.1813 	1
0.182 	1
0.1827 	1
0.1834 	1
0.1841 	1
0.1848 	1
0.1855 	1
0.1862 	1
0.1869 	1
0.1876 	1
0.1883 	1
0.189 	1
0.1897 	1
0.1904 	1
0.1911 	1
0.1918 	1
0.1925 	1
0.1932 	1
0.1939 	1
0.1946 	1
0.1953 	1
0.196 	1
0.1967 	1
0.1974 	1
0.1981 	1
0.1988 	1
0.1995 	1
0.2002 	1
0.2009 	1
0.2016 	1
0.2023 	1
0.203 	1
0.2037 	1
0.2044 	1
0.2051 	1
0.2058 	1
0.2065 	1
0.2072 	1
0.2079 	0.999999
0.2086 	0.999999
0.2093 	0.999999
0.21 	0.999998
0.2107 	0.999998
0.2114 	0.999992
0.2121 	0.999958
0.2128 	0.999913
0.2135 	0.999869
0.2142 	0.999807
0.2149 	0.999737
0.2156 	0.999671
0.2163 	0.999544
0.217 	0.998547
0.2177 	0.997392
0.2184 	0.996237
0.2191 	0.994648
0.2198 	0.992625
0.2205 	0.990575
0.2212 	0.988513
0.2219 	0.973335
0.2226 	0.953346
0.2233 	0.933357
0.224 	0.90858
0.2247 	0.875183
0.2254 	0.841592
0.2261 	0.807853
0.2268 	0.755808
0.2275 	0.696773
0.2282 	0.637738
0.2289 	0.573713
0.2296 	0.491389
0.2303 	0.408736
0.231 	0.325644
0.2317 	0.261276
0.2324 	0.211101
0.2331 	0.161531
0.2338 	0.114042
0.2345 	0.0936036
0.2352 	0.0730153
0.2359 	0.0520524
0.2366 	0.0355535
0.2373 	0.0251231
0.238 	0.0153192
0.2387 	0.00551516
0.2394 	0.00400417
0.2401 	0.00312317
0.2408 	0.0021947
0.2415 	0.00140372
0.2422 	0.000945039
0.2429 	0.000548754
0.2436 	0.000152468
0.2443 	5.88327e-05
0.245 	4.77376e-05
0.2457 	3.39286e-05
0.2464 	2.1152e-05
0.2471 	1.38458e-05
0.2478 	8.74545e-06
0.2485 	3.64513e-06
0.2492 	1.64492e-06
0.2499 	1.36699e-06
0.2506 	1.00278e-06
0.2513 	6.32715e-07
0.252 	4.10282e-07
0.2527 	2.78229e-07
0.2534 	1.46177e-07
0.2541 	7.38146e-08
0.2548 	6.11422e-08
0.2555 	4.58765e-08
0.2562 	2.95736e-08
0.2569 	1.90143e-08
0.2576 	1.3074e-08
0.2583 	7.13377e-09
0.259 	3.12395e-09
0.2597 	2.5889e-09
0.2604 	1.97874e-09
0.2611 	1.31224e-09
0.2618 	8.25897e-10
0.2625 	5.77486e-10
0.2632 	3.29075e-10
0.2639 	1.29611e-10
0.2646 	1.09619e-10
0.2653 	8.7585e-11
0.266 	6.28297e-11
0.2667 	4.32555e-11
0.2674 	3.24545e-11
0.2681 	2.26071e-11
0.2688 	1.33349e-11
0.2695 	1.15394e-11
0.2702 	9.68048e-12
0.2709 	7.66298e-12
0.2716 	5.96512e-12
0.2723 	4.87881e-12
0.273 	3.90735e-12
0.2737 	2.93589e-12
0.2744 	2.55664e-12
0.2751 	2.21946e-12
0.2758 	1.86142e-12
0.2765 	1.54205e-12
0.2772 	1.31958e-12
0.2779 	1.11733e-12
0.2786 	9.15077e-13
0.2793 	7.97633e-13
0.28 	7.03319e-13
0.2807 	6.05277e-13
0.2814 	5.13419e-13
0.2821 	4.47011e-13
0.2828 	3.84259e-13
0.2835 	3.21508e-13
0.2842 	2.77247e-13
0.2849 	2.43258e-13
0.2856 	2.08656e-13
0.2863 	1.74727e-13
0.287 	1.51141e-13
0.2877 	1.28212e-13
0.2884 	1.05284e-13
0.2891 	8.77649e-14
0.2898 	7.56557e-14
0.2905 	6.34154e-14
0.2912 	5.11227e-14
0.2919 	4.294e-14
0.2926 	3.52702e-14
0.2933 	2.76003e-14
0.294 	2.14945e-14
0.2947 	1.82038e-14
0.2954 	1.48855e-14
0.2961 	1.15463e-14
0.2968 	9.25583e-15
0.2975 	7.32314e-15
0.2982 	5.39045e-15
0.2989 	3.74314e-15
0.2996 	3.14221e-15
0.3003 	2.53734e-15
0.301 	1.92721e-15
0.3017 	1.48438e-15
0.3024 	1.14461e-15
0.3031 	8.065e-16
0.3038 	4.86944e-16
0.3045 	4.08595e-16
0.3052 	3.299e-16
0.3059 	2.5034e-16
0.3066 	1.88349e-16
0.3073 	1.44405e-16
0.308 	1.00652e-16
0.3087 	5.68978e-17
0.3094 	4.57223e-17
0.3101 	3.70332e-17
0.3108 	2.82269e-17
0.3115 	2.08471e-17
0.3122 	1.60093e-17
0.3129 	1.11523e-17
0.3136 	6.29527e-18
0.3143 	4.57369e-18
0.315 	3.70722e-18
0.3157 	2.8257e-18
0.3164 	2.03297e-18
0.3171 	1.55834e-18
0.3178 	1.07378e-18
0.3185 	5.89215e-19
0.3192 	3.70936e-19
0.3199 	3.00591e-19
0.3206 	2.29098e-19
0.3213 	1.59936e-19
0.322 	1.22687e-19
0.3227 	8.32465e-20
0.3234 	4.38064e-20
0.3241 	2.20244e-20
0.3248 	1.79003e-20
0.3255 	1.37017e-20
0.3262 	9.47321e-21
0.3269 	7.23391e-21
0.3276 	4.87097e-21
0.3283 	2.50803e-21
0.329 	9.28654e-22
0.3297 	7.59671e-22
0.3304 	5.86724e-22
0.3311 	4.10804e-22
0.3318 	3.1056e-22
0.3325 	2.09331e-22
0.3332 	1.08103e-22
0.3339 	2.75413e-23
0.3346 	2.27586e-23
0.3353 	1.78212e-23
0.336 	1.26772e-23
0.3367 	9.46286e-24
0.3374 	6.50554e-24
0.3381 	3.41273e-24
0.3388 	5.34746e-25
0.3395 	4.49357e-25
0.3402 	3.60067e-25
0.3409 	2.61023e-25
0.3416 	1.93278e-25
0.3423 	1.37469e-25
0.343 	7.39178e-26
0.3437 	1.03666e-26
0.3444 	5.09451e-27
0.3451 	4.26038e-27
0.3458 	3.15685e-27
0.3465 	2.32783e-27
0.3472 	1.74233e-27
0.3479 	9.6874e-28
0.3486 	1.95151e-28
0.3493 	2.73593e-29
0.35 	2.47827e-29
0.3507 	1.87952e-29
0.3514 	1.38034e-29
0.3521 	1.1041e-29
0.3528 	6.37975e-30
0.3535 	1.71849e-30
0.3542 	5.38615e-32
0.3549 	5.40178e-32
0.3556 	4.32717e-32
0.3563 	3.14817e-32
0.357 	2.71456e-32
0.3577 	1.6298e-32
0.3584 	5.45037e-33
0.3591 	2.84097e-35
0.3598 	3.20671e-35
0.3605 	2.77873e-35
0.3612 	2.03326e-35
0.3619 	1.842e-35
0.3626 	1.14514e-35
0.3633 	4.48283e-36
0.364 	3.25807e-39
0.3647 	3.86739e-39
0.3654 	3.60258e-39
0.3661 	2.68217e-39
0.3668 	2.45316e-39
0.3675 	1.57325e-39
0.3682 	6.92364e-40
0.3689 	2.55092e-43
0.3696 	3.07984e-43
0.3703 	3.05969e-43
0.371 	2.30747e-43
0.3717 	2.02024e-43
0.3724 	1.3965e-43
0.3731 	6.7248e-44
0.3738 	1.81486e-47
0.3745 	2.22989e-47
0.3752 	2.36612e-47
0.3759 	1.80538e-47
0.3766 	1.51561e-47
0.3773 	1.12367e-47
0.378 	5.81267e-48
0.3787 	3.88646e-49
0.3794 	1.49972e-51
0.3801 	1.69831e-51
0.3808 	1.30949e-51
0.3815 	1.05528e-51
0.3822 	8.35326e-52
0.3829 	4.5812e-52
0.3836 	8.09134e-53
0.3843 	1.00167e-55
0.385 	1.20652e-55
0.3857 	9.39072e-56
0.3864 	7.27202e-56
0.3871 	6.11881e-56
0.3878 	3.52321e-56
0.3885 	9.2762e-57
0.3892 	7.22043e-60
0.3899 	8.71452e-60
0.3906 	7.23043e-60
0.3913 	5.38695e-60
0.392 	4.79812e-60
0.3927 	2.87908e-60
0.3934 	9.6004e-61
0.3941 	5.83823e-64
0.3948 	7.05803e-64
0.3955 	6.23214e-64
0.3962 	4.58798e-64
0.3969 	4.20417e-64
0.3976 	2.61358e-64
0.3983 	1.02299e-64
0.399 	5.11477e-68
0.3997 	6.20985e-68
0.4004 	5.83174e-68
0.4011 	4.34871e-68
0.4018 	3.99151e-68
0.4025 	2.56134e-68
0.4032 	1.12723e-68
0.4039 	4.57344e-72
0.4046 	5.59136e-72
0.4053 	5.58575e-72
0.406 	4.21541e-72
0.4067 	3.69673e-72
0.4074 	2.55763e-72
0.4081 	1.23166e-72
0.4088 	4.00898e-76
0.4095 	4.94359e-76
0.4102 	5.25542e-76
0.4109 	4.01031e-76
0.4116 	3.36772e-76
0.4123 	2.49866e-76
0.413 	1.29258e-76
0.4137 	8.64915e-78
0.4144 	4.20655e-80
0.4151 	4.75514e-80
0.4158 	3.6714e-80
0.4165 	2.96255e-80
0.4172 	2.34592e-80
0.4179 	1.28593e-80
0.4186 	2.25934e-81
0.4193 	-2.00173e-82
0.42 	-4.39601e-82
0.4207 	-2.08009e-82
0.4214 	-2.62721e-83
0.4221 	-2.9734e-83
0.4228 	-3.64358e-83
0.4235 	-4.31375e-83
0.4242 	-2.27335e-82
0.4249 	-5.10141e-82
0.4256 	-3.07754e-82
0.4263 	-4.46836e-83
0.427 	-4.37135e-83
0.4277 	-4.20154e-83
0.4284 	-4.03173e-83
0.4291 	-1.15448e-82
0.4298 	-2.67408e-82
0.4305 	-1.99478e-82
0.4312 	-4.35934e-83
0.4319 	-3.10705e-83
0.4326 	-2.62343e-83
0.4333 	-2.13982e-83
0.434 	-3.71949e-83
0.4347 	-9.01302e-83
0.4354 	-8.12579e-83
0.4361 	-2.60298e-83
0.4368 	-1.38533e-83
0.4375 	-1.09592e-83
0.4382 	-8.05397e-84
0.4389 	-8.70299e-84
0.4396 	-2.23841e-83
0.4403 	-2.40098e-83
0.441 	-9.56164e-84
0.4417 	-4.31623e-84
0.4424 	-3.4036e-84
0.4431 	-2.35591e-84
0.4438 	-1.58424e-84
0.4445 	-4.40084e-84
0.4452 	-5.55534e-84
0.4459 	-2.55458e-84
0.4466 	-1.03914e-84
0.4473 	-8.35817e-85
0.448 	-5.61509e-85
0.4487 	-2.87201e-85
0.4494 	-7.1567e-85
0.4501 	-1.05536e-84
0.4508 	-5.38023e-85
0.4515 	-2.03493e-85
0.4522 	-1.69016e-85
0.4529 	-1.12317e-85
0.4536 	-5.56187e-86
0.4543 	-9.91336e-86
0.455 	-1.69979e-85
0.4557 	-9.36816e-86
0.4564 	-3.35548e-86
0.4571 	-2.89675e-86
0.4578 	-1.92615e-86
0.4585 	-9.55557e-87
0.4592 	-1.19433e-86
0.4599 	-2.10498e-86
0.4606 	-1.39185e-86
0.4613 	-4.77585e-87
0.462 	-4.29965e-87
0.4627 	-2.87986e-87
0.4634 	-1.46008e-87
0.4641 	-1.27101e-87
0.4648 	-2.31264e-87
0.4655 	-1.8049e-87
0.4662 	-6.77409e-88
0.4669 	-5.62054e-88
0.4676 	-3.80611e-88
0.4683 	-1.99168e-88
0.469 	-1.20895e-88
0.4697 	-2.28326e-88
0.4704 	-2.07846e-88
0.4711 	-9.1434e-89
0.4718 	-6.54681e-89
0.4725 	-4.49885e-89
0.4732 	-2.43901e-89
0.4739 	-1.03709e-89
0.4746 	-2.04755e-89
0.4753 	-2.15556e-89
0.476 	-1.06031e-89
0.4767 	-6.61359e-90
0.4774 	-4.8047e-90
0.4781 	-2.69974e-90
0.4788 	-8.07697e-91
0.4795 	-1.6835e-90
0.4802 	-2.03797e-90
0.4809 	-1.0891e-90
0.4816 	-6.09509e-91
0.4823 	-4.67937e-91
0.483 	-2.72151e-91
0.4837 	-7.63649e-92
0.4844 	-1.28015e-91
0.4851 	-1.77674e-91
0.4858 	-1.0119e-91
0.4865 	-5.17303e-92
0.4872 	-4.19254e-92
0.4879 	-2.51858e-92
0.4886 	-8.44621e-93
0.4893 	-9.07967e-93
0.49 	-1.44512e-92
0.4907 	-8.651e-93
0.4914 	-4.08094e-93
0.4921 	-3.48658e-93
0.4928 	-2.15832e-93
0.4935 	-8.30059e-94
0.4942 	-6.05906e-94
0.4949 	-9.95139e-94
0.4956 	-6.91594e-94
0.4963 	-3.02221e-94
0.497 	-2.71742e-94
0.4977 	-1.72942e-94
0.4984 	-7.41419e-95
0.4991 	-3.83813e-95
0.4998 	-6.56595e-95
0.5005 	-5.25637e-95
0.5012 	-2.33184e-95
0.5019 	-2.00716e-95
0.5026 	-1.3104e-95
0.5033 	-6.13644e-96
0.504 	-2.32754e-96
0.5047 	-4.20424e-96
0.5054 	-3.86451e-96
0.5061 	-1.86246e-96
0.5068 	-1.41993e-96
0.5075 	-9.5141e-97
0.5082 	-4.79372e-97
0.5089 	-1.36012e-97
0.5096 	-2.64465e-97
0.5103 	-2.7946e-97
0.511 	-1.43179e-97
0.5117 	-9.38177e-98
0.5124 	-6.71777e-98
0.5131 	-3.59966e-98
0.5138 	-7.67283e-99
0.5145 	-1.64947e-98
0.5152 	-2.01365e-98
0.5159 	-1.08279e-98
0.5166 	-6.1403e-99
0.5173 	-4.68131e-99
0.518 	-2.64274e-99
0.5187 	-6.04172e-100
0.5194 	-1.02378e-99
0.5201 	-1.4542e-99
0.5208 	-8.15023e-100
0.5215 	-4.02631e-100
0.5222 	-3.25655e-100
0.5229 	-1.92169e-100
0.5236 	-5.86843e-101
0.5243 	-6.30451e-101
0.525 	-1.05e-100
0.5257 	-6.11126e-101
0.5264 	-2.65731e-101
0.5271 	-2.27243e-101
0.5278 	-1.3924e-101
0.5285 	-5.12377e-102
0.5292 	-3.81971e-102
0.5299 	-6.68017e-102
0.5306 	-4.53125e-102
0.5313 	-1.75935e-102
0.532 	-1.5859e-102
0.5327 	-1.00342e-102
0.5334 	-4.20945e-103
0.5341 	-2.25144e-103
0.5348 	-4.16017e-103
0.5355 	-3.28611e-103
0.5362 	-1.29895e-103
0.5369 	-1.0972e-103
0.5376 	-7.13627e-104
0.5383 	-3.30058e-104
0.539 	-1.27597e-104
0.5397 	-2.51126e-104
0.5404 	-2.30677e-104
0.5411 	-1.02243e-104
0.5418 	-7.41966e-105
0.5425 	-4.95812e-105
0.5432 	-2.47411e-105
0.5439 	-6.87531e-106
0.5446 	-1.45818e-105
0.5453 	-1.5555e-105
0.546 	-7.55041e-106
0.5467 	-4.66557e-106
0.5474 	-3.33302e-106
0.5481 	-1.76821e-106
0.5488 	-3.48214e-107
0.5495 	-8.10872e-107
0.5502 	-1.00417e-106
0.5509 	-5.2405e-107
0.5516 	-2.82803e-107
0.5523 	-2.15128e-107
0.553 	-1.2007e-107
0.5537 	-2.50121e-108
0.5544 	-4.3219e-108
0.5551 	-6.23073e-108
0.5558 	-3.44083e-108
0.5565 	-1.64251e-108
0.5572 	-1.3259e-108
0.5579 	-7.72534e-109
0.5586 	-2.19165e-109
0.5593 	-2.23404e-109
0.56 	-3.79716e-109
0.5607 	-2.18154e-109
0.5614 	-9.1052e-110
0.5621 	-7.7754e-110
0.5628 	-4.70125e-110
0.5635 	-1.62709e-110
0.5642 	-1.16045e-110
0.5649 	-2.14241e-110
0.5656 	-1.41796e-110
0.5663 	-4.80852e-111
0.567 	-4.32959e-111
0.5677 	-2.70403e-111
0.5684 	-1.07847e-111
0.5691 	-6.5068e-112
0.5698 	-1.42064e-111
0.5705 	-1.08116e-111
0.5712 	-2.97903e-112
0.5719 	-2.28799e-112
0.5726 	-1.47086e-112
0.5733 	-6.53738e-113
0.574 	-4.21162e-113
0.5747 	-1.24077e-112
0.5754 	-1.11993e-112
0.5761 	-2.93749e-113
0.5768 	-1.14566e-113
0.5775 	-7.59052e-114
0.5782 	-3.68517e-114
0.5789 	-2.93199e-114
0.5796 	-1.37366e-113
0.5803 	-1.52648e-113
0.581 	-4.42428e-114
0.5817 	-5.31195e-115
0.5824 	-3.75449e-115
0.5831 	-1.9745e-115
0.5838 	-1.42471e-115
0.5845 	-1.68672e-114
0.5852 	-2.3478e-114
0.5859 	-8.00988e-115
0.5866 	-2.52479e-116
0.5873 	-1.83642e-116
0.588 	-1.05409e-116
0.5887 	-2.71761e-117
0.5894 	-2.0942e-115
0.5901 	-3.68814e-115
0.5908 	-1.4535e-115
0.5915 	-1.45504e-117
0.5922 	-9.67352e-118
0.5929 	-6.23419e-118
0.5936 	-2.79485e-118
0.5943 	-2.5233e-116
0.595 	-5.70858e-116
0.5957 	-2.52006e-116
0.5964 	-1.27255e-118
0.5971 	-6.43534e-119
0.5978 	-4.75684e-119
0.5985 	-3.07835e-119
0.5992 	-2.89257e-117
0.5999 	-7.35355e-117
0.6006 	-4.16341e-117
0.6013 	-1.60696e-119
0.602 	-5.98659e-120
0.6027 	-4.89092e-120
0.6034 	-3.79525e-120
0.6041 	-3.0974e-118
0.6048 	-9.22724e-118
0.6055 	-6.59599e-118
0.6062 	-4.60292e-119
0.6069 	-7.05572e-121
0.6076 	-6.01833e-121
0.6083 	-4.98093e-121
0.609 	-2.99735e-119
0.6097 	-1.12691e-118
0.6104 	-1.00829e-118
0.6111 	-1.8034e-119
0.6118 	-9.4081e-122
0.6125 	-7.8822e-122
0.6132 	-6.65012e-122
0.6139 	-2.40644e-120
0.6146 	-1.33712e-119
0.6153 	-1.49332e-119
0.616 	-3.95819e-120
0.6167 	-1.69581e-122
0.6174 	-1.04147e-122
0.6181 	-8.83618e-123
0.6188 	-1.09335e-121
0.6195 	-1.53681e-120
0.6202 	-2.1482e-120
0.6209 	-7.19409e-121
0.6216 	-2.81568e-123
0.6223 	-1.36266e-123
0.623 	-1.15846e-123
0.6237 	-9.54259e-124
0.6244 	-1.70416e-121
0.6251 	-3.00759e-121
0.6258 	-1.18078e-121
0.6265 	-4.39076e-124
0.6272 	-1.75393e-124
0.6279 	-1.49331e-124
0.6286 	-1.23269e-124
0.6293 	-1.81289e-122
0.63 	-4.10523e-122
0.6307 	-1.81081e-122
0.6314 	-6.51763e-125
0.6321 	-2.21483e-125
0.6328 	-1.88945e-125
0.6335 	-1.56408e-125
0.6342 	-1.8331e-123
0.6349 	-4.66207e-123
0.6356 	-2.63919e-123
0.6363 	-9.29204e-126
0.637 	-2.74156e-126
0.6377 	-2.34515e-126
0.6384 	-1.94874e-126
0.6391 	-1.73304e-124
0.6398 	-5.16411e-124
0.6405 	-3.69146e-124
0.6412 	-2.5733e-125
0.6419 	-3.32818e-127
0.6426 	-2.85632e-127
0.6433 	-2.38445e-127
0.644 	-1.4819e-125
0.6447 	-5.57292e-125
0.6454 	-4.98642e-125
0.6461 	-8.91768e-126
0.6468 	-4.13636e-128
0.6475 	-3.4169e-128
0.6482 	-2.86647e-128
0.6489 	-1.0523e-126
0.6496 	-5.84939e-126
0.6503 	-6.53288e-126
0.651 	-1.73157e-126
0.6517 	-6.95284e-129
0.6524 	-4.01906e-129
0.6531 	-3.38793e-129
0.6538 	-4.23284e-128
0.6545 	-5.95685e-127
0.6552 	-8.327e-127
0.6559 	-2.78861e-127
0.6566 	-1.04928e-129
0.6573 	-4.6544e-130
0.658 	-3.94133e-130
0.6587 	-3.22827e-130
0.6594 	-5.86733e-128
0.6601 	-1.03554e-127
0.6608 	-4.06556e-128
0.6615 	-1.47835e-130
0.6622 	-5.31656e-131
0.6629 	-4.52128e-131
0.6636 	-3.726e-131
0.6643 	-5.56655e-129
0.665 	-1.2606e-128
0.6657 	-5.56051e-129
0.6664 	-1.9838e-131
0.6671 	-6.00507e-132
0.6678 	-5.12792e-132
0.6685 	-4.25077e-132
0.6692 	-5.05409e-130
0.6699 	-1.28547e-129
0.6706 	-7.27716e-130
0.6713 	-2.56869e-132
0.672 	-6.72935e-133
0.6727 	-5.77045e-133
0.6734 	-4.81156e-133
0.6741 	-4.33701e-131
0.6748 	-1.29243e-130
0.6755 	-9.23888e-131
0.6762 	-6.44309e-132
0.6769 	-7.51179e-134
0.6776 	-6.46958e-134
0.6783 	-5.42737e-134
0.679 	-3.41735e-132
0.6797 	-1.28527e-131
0.6804 	-1.15003e-131
0.6811 	-2.05708e-132
0.6818 	-8.82685e-135
0.6825 	-7.25208e-135
0.6832 	-6.12107e-135
0.6839 	-2.27565e-133
0.6846 	-1.26511e-132
0.6853 	-1.41296e-132
0.686 	-3.74561e-133
0.6867 	-1.4633e-135
0.6874 	-8.10825e-136
0.6881 	-6.87709e-136
0.6888 	-8.66651e-135
0.6895 	-1.21967e-133
0.6902 	-1.70498e-133
0.6909 	-5.71034e-134
0.6916 	-2.13689e-136
0.6923 	-8.87218e-137
0.693 	-7.52791e-137
0.6937 	-6.18365e-137
0.6944 	-1.10872e-134
0.6951 	-1.95675e-134
0.6958 	-7.68287e-135
0.6965 	-2.93956e-137
0.6972 	-1.20877e-137
0.6979 	-1.07748e-137
0.6986 	-9.46188e-138
0.6993 	-1.63128e-135
0.7 	-3.69577e-135
