0 	1
0.0007 	1
0.0014 	1
0.0021 	1
0.0028 	1
0.0035 	1
0.0042 	1
0.0049 	1
0.0056 	1
0.0063 	1
0.007 	1
0.0077 	1
0.0084 	1
0.0091 	1
0.0098 	1
0.0105 	1
0.0112 	1
0.0119 	1
0.0126 	1
0.0133 	1
0.014 	1
0.0147 	1
0.0154 	1
0.0161 	1
0.0168 	1
0.0175 	1
0.0182 	1
0.0189 	1
0.0196 	1
0.0203 	1
0.021 	1
0.0217 	1
0.0224 	1
0.0231 	1
0.0238 	1
0.0245 	1
0.0252 	1
0.0259 	1
0.0266 	1
0.0273 	1
0.028 	1
0.0287 	1
0.0294 	1
0.0301 	1
0.0308 	1
0.0315 	1
0.0322 	1
0.0329 	1
0.0336 	1
0.0343 	1
0.035 	1
0.0357 	1
0.0364 	1
0.0371 	1
0.0378 	1
0.0385 	1
0.0392 	1
0.0399 	1
0.0406 	1
0.0413 	1
0.042 	1
0.0427 	1
0.0434 	1
0.0441 	1
0.0448 	1
0.0455 	1
0.0462 	1
0.0469 	1
0.0476 	1
0.0483 	1
0.049 	1
0.0497 	1
0.0504 	1
0.0511 	1
0.0518 	1
0.0525 	1
0.0532 	1
0.0539 	1
0.0546 	1
0.0553 	1
0.056 	1
0.0567 	1
0.0574 	1
0.0581 	1
0.0588 	1
0.0595 	1
0.0602 	1
0.0609 	1
0.0616 	1
0.0623 	1
0.063 	1
0.0637 	1
0.0644 	1
0.0651 	1
0.0658 	1
0.0665 	1
0.0672 	1
0.0679 	1
0.0686 	1
0.0693 	1
0.07 	1
0.0707 	1
0.0714 	1
0.0721 	1
0.0728 	1
0.0735 	1
0.0742 	1
0.0749 	1
0.0756 	1
0.0763 	1
0.077 	1
0.0777 	1
0.0784 	1
0.0791 	1
0.0798 	1
0.0805 	1
0.0812 	1
0.0819 	1
0.0826 	1
0.0833 	1
0.084 	1
0.0847 	1
0.0854 	1
0.0861 	1
0.0868 	1
0.0875 	1
0.0882 	1
0.0889 	1
0.0896 	1
0.0903 	1
0.091 	1
0.0917 	1
0.0924 	1
0.0931 	1
0.0938 	1
0.0945 	1
0.0952 	1
0.0959 	1
0.0966 	1
0.0973 	1
0.098 	1
0.0987 	1
0.0994 	1
0.1001 	1
0.1008 	1
0.1015 	1
0.1022 	1
0.1029 	1
0.1036 	1
0.1043 	1
0.105 	1
0.1057 	1
0.1064 	1
0.1071 	1
0.1078 	1
0.1085 	1
0.1092 	1
0.1099 	1
0.1106 	1
0.1113 	1
0.112 	1
0.1127 	1
0.1134 	1
0.1141 	1
0.1148 	1
0.1155 	1
0.1162 	1
0.1169 	1
0.1176 	1
0.1183 	1
0.119 	1
0.1197 	1
0.1204 	1
0.1211 	1
0.1218 	1
0.1225 	1
0.1232 	1
0.1239 	1
0.1246 	1
0.1253 	1
0.126 	1
0.1267 	1
0.1274 	1
0.1281 	1
0.1288 	1
0.1295 	1
0.1302 	1
0.1309 	1
0.1316 	1
0.1323 	1
0.133 	1
0.1337 	1
0.1344 	1
0.1351 	1
0.1358 	1
0.1365 	1
0.1372 	1
0.1379 	1
0.1386 	1
0.1393 	1
0.14 	1
0.1407 	1
0.1414 	1
0.1421 	1
0.1428 	1
0.1435 	1
0.1442 	1
0.1449 	1
0.1456 	1
0.1463 	1
0.147 	1
0.1477 	1
0.1484 	1
0.1491 	1
0.1498 	1
0.1505 	1
0.1512 	1
0.1519 	1
0.1526 	1
0.1533 	1
0.154 	1
0.1547 	1
0.1554 	1
0.1561 	1
0.1568 	1
0.1575 	1
0.1582 	1
0.1589 	1
0.1596 	1
0.1603 	1
0.161 	1
0.1617 	1
0.1624 	1
0.1631 	1
0.1638 	1
0.1645 	1
0.1652 	1
0.1659 	1
0.1666 	1
0.1673 	1
0.168 	1
0.1687 	1
0.1694 	1
0.1701 	1
0.1708 	1
0.1715 	1
0.1722 	1
0.1729 	1
0.1736 	1
0.1743 	1
0.175 	1
0.1757 	1
0.1764 	1
0.1771 	1
0.1778 	1
0.1785 	1
0.1792 	1
0.1799 	1
0.1806 	1
0.1813 	1
0.182 	1
0.1827 	1
0.1834 	1
0.1841 	1
0.1848 	1
0.1855 	1
0.1862 	1
0.1869 	1
0.1876 	1
0.1883 	1
0.189 	1
0.1897 	1
0.1904 	1
0.1911 	1
0.1918 	1
0.1925 	1
0.1932 	1
0.1939 	1
0.1946 	1
0.1953 	1
0.196 	1
0.1967 	1
0.1974 	1
0.1981 	1
0.1988 	1
0.1995 	1
0.2002 	1
0.2009 	1
0.2016 	1
0.2023 	1
0.203 	1
0.2037 	1
0.2044 	1
0.2051 	1
0.2058 	1
0.2065 	1
0.2072 	1
0.2079 	1
0.2086 	1
0.2093 	1
0.21 	1
0.2107 	1
0.2114 	1
0.2121 	1
0.2128 	1
0.2135 	1
0.2142 	1
0.2149 	1
0.2156 	1
0.2163 	1
0.217 	0.999999
0.2177 	0.999999
0.2184 	0.999998
0.2191 	0.999997
0.2198 	0.999996
0.2205 	0.999995
0.2212 	0.999994
0.2219 	0.999796
0.2226 	0.999623
0.2233 	0.999468
0.224 	0.999237
0.2247 	0.99887
0.2254 	0.998522
0.2261 	0.998189
0.2268 	0.992247
0.2275 	0.985475
0.2282 	0.979272
0.2289 	0.971541
0.2296 	0.958204
0.2303 	0.945117
0.231 	0.932364
0.2317 	0.898556
0.2324 	0.854366
0.2331 	0.81207
0.2338 	0.767436
0.2345 	0.692399
0.2352 	0.617776
0.2359 	0.544188
0.2366 	0.476668
0.2373 	0.414965
0.238 	0.352576
0.2387 	0.290186
0.2394 	0.239063
0.2401 	0.188936
0.2408 	0.139589
0.2415 	0.0992069
0.2422 	0.0745529
0.2429 	0.0470523
0.2436 	0.0195516
0.2443 	0.0117662
0.245 	0.00935792
0.2457 	0.0069592
0.2464 	0.00484448
0.2471 	0.00377115
0.2478 	0.00237159
0.2485 	0.000966732
0.2492 	0.000413294
0.2499 	0.000332882
0.2506 	0.000252618
0.2513 	0.000175488
0.252 	0.000138783
0.2527 	9.31374e-05
0.2534 	4.58158e-05
0.2541 	2.02493e-05
0.2548 	1.64383e-05
0.2555 	1.26251e-05
0.2562 	8.81095e-06
0.2569 	6.92924e-06
0.2576 	4.8214e-06
0.2583 	2.55311e-06
0.259 	1.02769e-06
0.2597 	8.39499e-07
0.2604 	6.5106e-07
0.2611 	4.62434e-07
0.2618 	3.55064e-07
0.2625 	2.54576e-07
0.2632 	1.42002e-07
0.2639 	5.15732e-08
0.2646 	4.23479e-08
0.2653 	3.3119e-08
0.266 	2.38851e-08
0.2667 	1.79032e-08
0.2674 	1.31782e-08
0.2681 	7.68295e-09
0.2688 	2.5486e-09
0.2695 	2.10632e-09
0.2702 	1.66418e-09
0.2709 	1.22238e-09
0.2716 	9.00619e-10
0.2723 	6.82453e-10
0.273 	4.20803e-10
0.2737 	1.59154e-10
0.2744 	1.20056e-10
0.2751 	9.80891e-11
0.2758 	7.61764e-11
0.2765 	5.82808e-11
0.2772 	4.72729e-11
0.2779 	3.40189e-11
0.2786 	2.07648e-11
0.2793 	1.6326e-11
0.28 	1.42914e-11
0.2807 	1.22849e-11
0.2814 	1.04564e-11
0.2821 	9.28024e-12
0.2828 	7.97861e-12
0.2835 	6.67579e-12
0.2842 	5.90492e-12
0.2849 	5.42957e-12
0.2856 	4.96686e-12
0.2863 	4.51448e-12
0.287 	4.16906e-12
0.2877 	3.81417e-12
0.2884 	3.45759e-12
0.2891 	3.15816e-12
0.2898 	2.91588e-12
0.2905 	2.68044e-12
0.2912 	2.44773e-12
0.2919 	2.24434e-12
0.2926 	2.04049e-12
0.2933 	1.83553e-12
0.294 	1.64157e-12
0.2947 	1.46745e-12
0.2954 	1.29716e-12
0.2961 	1.12975e-12
0.2968 	9.97069e-13
0.2975 	8.72679e-13
0.2982 	7.47382e-13
0.2989 	6.31432e-13
0.2996 	5.49756e-13
0.3003 	4.69557e-13
0.301 	3.91329e-13
0.3017 	3.306e-13
0.3024 	2.79612e-13
0.3031 	2.28648e-13
0.3038 	1.7961e-13
0.3045 	1.55599e-13
0.3052 	1.31916e-13
0.3059 	1.0905e-13
0.3066 	9.02855e-14
0.3073 	7.57153e-14
0.308 	6.13794e-14
0.3087 	4.70436e-14
0.3094 	4.02535e-14
0.3101 	3.40894e-14
0.3108 	2.81975e-14
0.3115 	2.30561e-14
0.3122 	1.92806e-14
0.3129 	1.55993e-14
0.3136 	1.19179e-14
0.3143 	9.87214e-15
0.315 	8.2724e-15
0.3157 	6.75337e-15
0.3164 	5.35704e-15
0.3171 	4.41059e-15
0.3178 	3.49736e-15
0.3185 	2.58422e-15
0.3192 	2.03598e-15
0.3199 	1.69047e-15
0.3206 	1.35937e-15
0.3213 	1.03993e-15
0.322 	8.40993e-16
0.3227 	6.51603e-16
0.3234 	4.63826e-16
0.3241 	3.40395e-16
0.3248 	2.81309e-16
0.3255 	2.24189e-16
0.3262 	1.67854e-16
0.3269 	1.32766e-16
0.3276 	1.01048e-16
0.3283 	7.00269e-17
0.329 	4.71128e-17
0.3297 	3.87914e-17
0.3304 	3.06852e-17
0.3311 	2.27402e-17
0.3318 	1.73973e-17
0.3325 	1.29974e-17
0.3332 	8.77245e-18
0.3339 	5.25173e-18
0.3346 	4.3133e-18
0.3353 	3.39214e-18
0.336 	2.494e-18
0.3367 	1.84127e-18
0.3374 	1.34882e-18
0.3381 	8.88181e-19
0.3388 	4.54609e-19
0.3395 	3.72921e-19
0.3402 	2.92155e-19
0.3409 	2.13693e-19
0.3416 	1.52132e-19
0.3423 	1.09156e-19
0.343 	7.03547e-20
0.3437 	3.15531e-20
0.3444 	2.39173e-20
0.3451 	1.87043e-20
0.3458 	1.36426e-20
0.3465 	9.36403e-21
0.3472 	6.56248e-21
0.3479 	4.15568e-21
0.3486 	1.74889e-21
0.3493 	1.05333e-21
0.35 	8.24487e-22
0.3507 	6.01033e-22
0.3514 	3.982e-22
0.3521 	2.71078e-22
0.3528 	1.69541e-22
0.3535 	6.80034e-23
0.3542 	2.79168e-23
0.3549 	2.19703e-23
0.3556 	1.60428e-23
0.3563 	1.02963e-23
0.357 	6.86097e-24
0.3577 	4.19502e-24
0.3584 	1.65262e-24
0.3591 	3.46159e-25
0.3598 	2.75656e-25
0.3605 	2.02888e-25
0.3612 	1.29214e-25
0.3619 	8.25018e-26
0.3626 	4.90798e-26
0.3633 	2.00274e-26
0.364 	1.26766e-27
0.3647 	1.03506e-27
0.3654 	7.77725e-28
0.3661 	5.01835e-28
0.3668 	3.0107e-28
0.3675 	1.70163e-28
0.3682 	7.5356e-29
0.3689 	8.37956e-31
0.3696 	7.15915e-31
0.3703 	5.62505e-31
0.371 	3.67271e-31
0.3717 	2.07488e-31
0.3724 	1.04779e-31
0.3731 	5.05007e-32
0.3738 	9.88535e-35
0.3745 	8.87343e-35
0.3752 	7.43477e-35
0.3759 	4.92931e-35
0.3766 	2.72042e-35
0.3773 	1.1996e-35
0.378 	6.20886e-36
0.3787 	4.2168e-37
0.3794 	7.59519e-39
0.3801 	6.65708e-39
0.3808 	4.50667e-39
0.3815 	2.52892e-39
0.3822 	1.04318e-39
0.3829 	5.7235e-40
0.3836 	1.01516e-40
0.3843 	5.78224e-43
0.385 	5.24138e-43
0.3857 	3.62159e-43
0.3864 	2.07897e-43
0.3871 	8.27837e-44
0.3878 	4.76821e-44
0.3885 	1.25804e-44
0.3892 	4.14822e-47
0.3899 	3.76614e-47
0.3906 	2.72785e-47
0.3913 	1.59826e-47
0.392 	7.03534e-48
0.3927 	3.70685e-48
0.3934 	1.2376e-48
0.3941 	2.83122e-51
0.3948 	2.57803e-51
0.3955 	1.9517e-51
0.3962 	1.17611e-51
0.3969 	5.56941e-52
0.3976 	2.70716e-52
0.3983 	1.06049e-52
0.399 	1.84645e-55
0.3997 	1.68916e-55
0.4004 	1.33448e-55
0.4011 	8.31747e-56
0.4018 	4.13085e-56
0.4025 	1.87076e-56
0.4032 	8.23795e-57
0.4039 	1.15806e-59
0.4046 	1.06565e-59
0.4053 	8.78044e-60
0.406 	5.63518e-60
0.4067 	2.91005e-60
0.4074 	1.23504e-60
0.4081 	5.95018e-61
0.4088 	7.04063e-64
0.4095 	6.52041e-64
0.4102 	5.60226e-64
0.4109 	3.68927e-64
0.4116 	1.97008e-64
0.4123 	7.87132e-65
0.413 	4.07339e-65
0.4137 	2.75463e-66
0.4144 	3.89925e-68
0.4151 	3.49264e-68
0.4158 	2.35336e-68
0.4165 	1.29449e-68
0.4172 	4.89099e-69
0.4179 	2.68325e-69
0.4186 	4.75513e-70
0.4193 	2.25521e-72
0.42 	2.05195e-72
0.4207 	1.43348e-72
0.4214 	8.31942e-73
0.4221 	2.98536e-73
0.4228 	1.71848e-73
0.4235 	4.51601e-74
0.4242 	-2.8774e-74
0.4249 	-7.33998e-74
0.4256 	-4.15671e-74
0.4263 	-1.7686e-76
0.427 	-2.00589e-76
0.4277 	-2.0837e-76
0.4284 	-2.13819e-76
0.4291 	-1.78059e-74
0.4298 	-5.2985e-74
0.4305 	-3.78984e-74
0.4312 	-2.70543e-75
0.4319 	-1.76634e-76
0.4326 	-1.69369e-76
0.4333 	-1.65326e-76
0.434 	-9.44931e-75
0.4347 	-3.54521e-74
0.4354 	-3.17304e-74
0.4361 	-5.71542e-75
0.4368 	-1.3004e-76
0.4375 	-1.22489e-76
0.4382 	-1.1912e-76
0.4389 	-4.07056e-75
0.4396 	-2.25233e-74
0.4403 	-2.51553e-74
0.441 	-6.69296e-75
0.4417 	-9.23886e-77
0.4424 	-8.53981e-77
0.4431 	-8.28238e-77
0.4438 	-9.80213e-76
0.4445 	-1.35779e-74
0.4452 	-1.89748e-74
0.4459 	-6.37002e-75
0.4466 	-6.36143e-77
0.4473 	-5.75669e-77
0.448 	-5.56935e-77
0.4487 	-5.38202e-77
0.4494 	-7.74516e-75
0.4501 	-1.3661e-74
0.4508 	-5.37271e-75
0.4515 	-4.24952e-77
0.4522 	-3.75503e-77
0.4529 	-3.62443e-77
0.4536 	-3.49382e-77
0.4543 	-4.15918e-75
0.455 	-9.40859e-75
0.4557 	-4.15569e-75
0.4564 	-2.75508e-77
0.4571 	-2.37067e-77
0.4578 	-2.28318e-77
0.4585 	-2.19568e-77
0.4592 	-2.08424e-75
0.4599 	-5.29273e-75
0.4606 	-2.99898e-75
0.4613 	-1.73363e-77
0.462 	-1.4738e-77
0.4627 	-1.39233e-77
0.4634 	-1.33592e-77
0.4641 	-9.59286e-76
0.4648 	-2.85172e-75
0.4655 	-2.03964e-75
0.4662 	-1.45754e-76
0.4669 	-8.92103e-78
0.4676 	-8.22123e-78
0.4683 	-7.87088e-78
0.469 	-3.92557e-76
0.4697 	-1.47032e-75
0.4704 	-1.31585e-75
0.4711 	-2.37199e-76
0.4718 	-5.24641e-78
0.4725 	-4.70225e-78
0.4732 	-4.49246e-78
0.4739 	-1.31402e-76
0.4746 	-7.24427e-76
0.4753 	-8.08921e-76
0.476 	-2.15376e-76
0.4767 	-2.99862e-78
0.4774 	-2.60668e-78
0.4781 	-2.48545e-78
0.4788 	-2.4904e-77
0.4795 	-3.40356e-76
0.4802 	-4.75465e-76
0.4809 	-1.59718e-76
0.4816 	-1.66624e-78
0.4823 	-1.40128e-78
0.483 	-1.33361e-78
0.4837 	-1.26595e-78
0.4844 	-1.51984e-76
0.4851 	-2.67902e-76
0.4858 	-1.05422e-76
0.4865 	-9.00387e-79
0.4872 	-7.30799e-79
0.4879 	-6.94286e-79
0.4886 	-6.57773e-79
0.4893 	-6.41669e-77
0.49 	-1.45007e-76
0.4907 	-6.40809e-77
0.4914 	-4.73238e-79
0.4921 	-3.69856e-79
0.4928 	-3.50795e-79
0.4935 	-3.31734e-79
0.4942 	-2.5391e-77
0.4949 	-6.43828e-77
0.4956 	-3.64937e-77
0.4963 	-2.41952e-79
0.497 	-1.87093e-79
0.4977 	-1.7205e-79
0.4984 	-1.62419e-79
0.4991 	-9.26994e-78
0.4998 	-2.74947e-77
0.5005 	-1.96685e-77
0.5012 	-1.42175e-78
0.5019 	-9.26548e-80
0.5026 	-8.19239e-80
0.5033 	-7.72117e-80
0.504 	-3.02397e-78
0.5047 	-1.12834e-77
0.5054 	-1.00975e-77
0.5061 	-1.82749e-78
0.5068 	-4.46846e-80
0.5075 	-3.78808e-80
0.5082 	-3.56476e-80
0.5089 	-8.12096e-79
0.5096 	-4.44377e-78
0.5103 	-4.96047e-78
0.511 	-1.3239e-78
0.5117 	-2.09865e-80
0.5124 	-1.70141e-80
0.5131 	-1.59885e-80
0.5138 	-1.25763e-79
0.5145 	-1.676e-78
0.5152 	-2.33976e-78
0.5159 	-7.87304e-79
0.5166 	-9.59928e-81
0.5173 	-7.42594e-81
0.518 	-6.96917e-81
0.5187 	-6.5124e-81
0.5194 	-6.03424e-79
0.5201 	-1.06248e-78
0.5208 	-4.18641e-79
0.5215 	-4.27661e-81
0.5222 	-3.15096e-81
0.5229 	-2.95362e-81
0.5236 	-2.75627e-81
0.5243 	-2.06346e-79
0.525 	-4.65515e-79
0.5257 	-2.05935e-79
0.5264 	-1.85602e-81
0.5271 	-1.30047e-81
0.5278 	-1.2177e-81
0.5285 	-1.13493e-81
0.5292 	-6.64532e-80
0.5299 	-1.68106e-79
0.5306 	-9.53514e-80
0.5313 	-7.848e-82
0.532 	-5.46284e-82
0.5327 	-4.88601e-82
0.5334 	-4.54876e-82
0.5341 	-1.98483e-80
0.5348 	-5.8669e-80
0.5355 	-4.1983e-80
0.5362 	-3.0943e-81
0.5369 	-2.26051e-82
0.5376 	-1.909e-82
0.5383 	-1.77543e-82
0.539 	-5.3282e-81
0.5397 	-1.97742e-80
0.5404 	-1.76953e-80
0.5411 	-3.22289e-81
0.5418 	-9.12639e-83
0.5425 	-7.2659e-83
0.5432 	-6.75143e-83
0.5439 	-1.18669e-81
0.5446 	-6.42841e-81
0.5453 	-7.17293e-81
0.546 	-1.92118e-81
0.5467 	-3.59516e-83
0.5474 	-2.69527e-83
0.5481 	-2.50245e-83
0.5488 	-1.55782e-82
0.5495 	-2.01152e-81
0.5502 	-2.80578e-81
0.5509 	-9.46345e-82
0.5516 	-1.382e-83
0.5523 	-9.74848e-84
0.553 	-9.0449e-84
0.5537 	-8.34133e-84
0.5544 	-6.0386e-82
0.5551 	-1.0618e-81
0.5558 	-4.19091e-82
0.5565 	-5.18471e-84
0.5572 	-3.43943e-84
0.5579 	-3.18935e-84
0.5586 	-2.93928e-84
0.5593 	-1.73012e-82
0.56 	-3.89536e-82
0.5607 	-1.72547e-82
0.5614 	-1.89865e-84
0.5621 	-1.18426e-84
0.5628 	-1.09763e-84
0.5635 	-1.011e-84
0.5642 	-4.69019e-83
0.5649 	-1.18336e-82
0.5656 	-6.7176e-83
0.5663 	-6.78841e-85
0.567 	-4.24106e-85
0.5677 	-3.68867e-85
0.5684 	-3.39604e-85
0.5691 	-1.18463e-83
0.5698 	-3.4889e-83
0.5705 	-2.4976e-83
0.5712 	-1.88059e-84
0.5719 	-1.50565e-85
0.5726 	-1.21108e-85
0.5733 	-1.11464e-85
0.574 	-2.7021e-84
0.5747 	-9.9733e-84
0.5754 	-8.9248e-84
0.5761 	-1.63651e-84
0.5768 	-5.22082e-86
0.5775 	-3.88695e-86
0.5782 	-3.57661e-86
0.5789 	-5.14538e-85
0.5796 	-2.7602e-84
0.5803 	-3.07869e-84
0.581 	-8.27611e-85
0.5817 	-1.76859e-86
0.5824 	-1.22017e-86
0.5831 	-1.12261e-86
0.5838 	-5.88317e-86
0.5845 	-7.38012e-85
0.5852 	-1.02861e-84
0.5859 	-3.47752e-85
0.5866 	-5.85494e-87
0.5873 	-3.74833e-87
0.588 	-3.44848e-87
0.5887 	-3.14862e-87
0.5894 	-1.90009e-85
0.5901 	-3.33691e-85
0.5908 	-1.31926e-85
0.5915 	-1.89488e-87
0.5922 	-1.1274e-87
0.5929 	-1.03725e-87
0.5936 	-9.47108e-88
0.5943 	-4.68594e-86
0.595 	-1.05318e-85
0.5957 	-4.67087e-86
0.5964 	-5.99762e-88
0.5971 	-3.32163e-88
0.5978 	-3.0564e-88
0.5985 	-2.79117e-88
0.5992 	-1.09743e-86
0.5999 	-2.7626e-86
0.6006 	-1.56945e-86
0.6013 	-1.85732e-88
0.602 	-1.0434e-88
0.6027 	-8.82676e-89
0.6034 	-8.06255e-89
0.6041 	-2.40346e-87
0.6048 	-7.05678e-87
0.6055 	-5.05363e-87
0.6062 	-3.87884e-88
0.6069 	-3.26707e-89
0.6076 	-2.49938e-89
0.6083 	-2.28365e-89
0.609 	-4.77231e-88
0.6097 	-1.75342e-87
0.6104 	-1.56913e-87
0.6111 	-2.89481e-88
0.6118 	-9.9875e-90
0.6125 	-6.94159e-90
0.6132 	-6.34467e-90
0.6139 	-7.95035e-89
0.6146 	-4.23102e-88
0.6153 	-4.71783e-88
0.616 	-1.2724e-88
0.6167 	-2.98292e-90
0.6174 	-1.89156e-90
0.6181 	-1.7296e-90
0.6188 	-8.06771e-90
0.6195 	-9.89083e-89
0.6202 	-1.37768e-88
0.6209 	-4.66742e-89
0.6216 	-8.70933e-91
0.6223 	-5.05866e-91
0.623 	-4.62766e-91
0.6237 	-4.19665e-91
0.6244 	-2.23197e-89
0.6251 	-3.91589e-89
0.6258 	-1.55044e-89
0.6265 	-2.48733e-91
0.6272 	-1.32806e-91
0.6279 	-1.21552e-91
0.6286 	-1.10297e-91
0.6293 	-4.83535e-90
0.63 	-1.08521e-89
0.6307 	-4.81822e-90
0.6314 	-6.95206e-92
0.6321 	-3.42358e-92
0.6328 	-3.13515e-92
0.6335 	-2.84673e-92
0.6342 	-9.96797e-91
0.6349 	-2.50469e-90
0.6356 	-1.42391e-90
0.6363 	-1.90259e-92
0.637 	-9.65589e-93
0.6377 	-7.94289e-93
0.6384 	-7.21719e-93
0.6391 	-1.92535e-91
0.6398 	-5.63896e-91
0.6405 	-4.03972e-91
0.6412 	-3.15341e-92
0.6419 	-2.72205e-93
0.6426 	-1.9772e-93
0.6433 	-1.79788e-93
0.644 	-3.37877e-92
0.6447 	-1.23682e-91
0.6454 	-1.1069e-91
0.6461 	-2.05327e-92
0.6468 	-7.47142e-94
0.6475 	-4.8372e-94
0.6482 	-4.40187e-94
0.6489 	-4.99008e-93
0.6496 	-2.63826e-92
0.6503 	-2.94117e-92
0.651 	-7.95615e-93
0.6517 	-1.99994e-94
0.6524 	-1.16327e-94
0.6531 	-1.05942e-94
0.6538 	-4.5381e-94
0.6545 	-5.45904e-93
0.6552 	-7.59989e-93
0.6559 	-2.57982e-93
0.6566 	-5.22709e-95
0.6573 	-2.7497e-95
0.658 	-2.50614e-95
0.6587 	-2.26258e-95
0.6594 	-1.09137e-93
0.6601 	-1.91312e-93
0.6608 	-7.5854e-94
0.6615 	-1.33477e-95
0.6622 	-6.38397e-96
0.6629 	-5.82247e-96
0.6636 	-5.26097e-96
0.6643 	-2.09401e-94
0.665 	-4.6937e-94
0.6657 	-2.08618e-94
0.6664 	-3.3285e-96
0.6671 	-1.45211e-96
0.6678 	-1.3249e-96
0.6685 	-1.19768e-96
0.6692 	-3.80862e-95
0.6699 	-9.5539e-95
0.6706 	-5.43512e-95
0.6713 	-8.08055e-97
0.672 	-3.6855e-97
0.6727 	-2.93079e-97
0.6734 	-2.64799e-97
0.6741 	-6.40647e-96
0.6748 	-1.87181e-95
0.6755 	-1.34144e-95
0.6762 	-1.06444e-96
0.6769 	-9.16501e-98
0.6776 	-6.19407e-98
0.6783 	-5.58071e-98
0.679 	-9.46453e-97
0.6797 	-3.4513e-96
0.6804 	-3.08885e-96
0.6811 	-5.7593e-97
0.6818 	-2.11535e-98
0.6825 	-1.20803e-98
0.6832 	-1.08031e-98
0.6839 	-1.09221e-97
0.6846 	-5.73188e-97
0.6853 	-6.38787e-97
0.686 	-1.7323e-97
0.6867 	-4.35719e-99
0.6874 	-2.04431e-99
0.6881 	-1.79828e-99
0.6888 	-6.75181e-99
0.6895 	-7.92998e-98
0.6902 	-1.10314e-97
0.6909 	-3.74929e-98
0.6916 	-7.45722e-100
0.6923 	-2.7057e-100
0.693 	-2.2985e-100
0.6937 	-1.8913e-100
0.6944 	-7.94474e-99
0.6951 	-1.39077e-98
0.6958 	-5.51682e-99
0.6965 	-9.32569e-101
0.6972 	-2.41526e-101
0.6979 	-1.91628e-101
0.6986 	-1.41731e-101
0.6993 	-1.13842e-101
0.7 	-9.19552e-102
