0 	1
0.0007 	1
0.0014 	1
0.0021 	1
0.0028 	1
0.0035 	1
0.0042 	1
0.0049 	1
0.0056 	1
0.0063 	1
0.007 	1
0.0077 	1
0.0084 	1
0.0091 	1
0.0098 	1
0.0105 	1
0.0112 	1
0.0119 	1
0.0126 	1
0.0133 	1
0.014 	1
0.0147 	1
0.0154 	1
0.0161 	1
0.0168 	1
0.0175 	1
0.0182 	1
0.0189 	1
0.0196 	1
0.0203 	1
0.021 	1
0.0217 	1
0.0224 	1
0.0231 	1
0.0238 	1
0.0245 	1
0.0252 	1
0.0259 	1
0.0266 	1
0.0273 	1
0.028 	1
0.0287 	1
0.0294 	1
0.0301 	1
0.0308 	1
0.0315 	1
0.0322 	1
0.0329 	1
0.0336 	1
0.0343 	1
0.035 	1
0.0357 	1
0.0364 	1
0.0371 	1
0.0378 	1
0.0385 	1
0.0392 	1
0.0399 	1
0.0406 	1
0.0413 	1
0.042 	1
0.0427 	1
0.0434 	1
0.0441 	1
0.0448 	1
0.0455 	1
0.0462 	1
0.0469 	1
0.0476 	1
0.0483 	1
0.049 	1
0.0497 	1
0.0504 	1
0.0511 	1
0.0518 	1
0.0525 	1
0.0532 	1
0.0539 	1
0.0546 	1
0.0553 	1
0.056 	1
0.0567 	1
0.0574 	1
0.0581 	1
0.0588 	1
0.0595 	1
0.0602 	1
0.0609 	1
0.0616 	1
0.0623 	1
0.063 	1
0.0637 	1
0.0644 	1
0.0651 	1
0.0658 	1
0.0665 	1
0.0672 	1
0.0679 	1
0.0686 	1
0.0693 	1
0.07 	1
0.0707 	1
0.0714 	1
0.0721 	1
0.0728 	1
0.0735 	1
0.0742 	1
0.0749 	1
0.0756 	1
0.0763 	1
0.077 	1
0.0777 	1
0.0784 	1
0.0791 	1
0.0798 	1
0.0805 	1
0.0812 	1
0.0819 	1
0.0826 	1
0.0833 	1
0.084 	1
0.0847 	1
0.0854 	1
0.0861 	1
0.0868 	1
0.0875 	1
0.0882 	1
0.0889 	1
0.0896 	1
0.0903 	1
0.091 	1
0.0917 	1
0.0924 	1
0.0931 	1
0.0938 	1
0.0945 	1
0.0952 	1
0.0959 	1
0.0966 	1
0.0973 	1
0.098 	1
0.0987 	1
0.0994 	1
0.1001 	1
0.1008 	1
0.1015 	1
0.1022 	1
0.1029 	1
0.1036 	1
0.1043 	1
0.105 	1
0.1057 	1
0.1064 	1
0.1071 	1
0.1078 	1
0.1085 	1
0.1092 	1
0.1099 	1
0.1106 	1
0.1113 	1
0.112 	1
0.1127 	1
0.1134 	1
0.1141 	1
0.1148 	1
0.1155 	1
0.1162 	1
0.1169 	1
0.1176 	1
0.1183 	1
0.119 	1
0.1197 	1
0.1204 	1
0.1211 	1
0.1218 	1
0.1225 	1
0.1232 	1
0.1239 	1
0.1246 	1
0.1253 	1
0.126 	1
0.1267 	1
0.1274 	1
0.1281 	1
0.1288 	1
0.1295 	1
0.1302 	1
0.1309 	1
0.1316 	1
0.1323 	1
0.133 	1
0.1337 	1
0.1344 	1
0.1351 	1
0.1358 	1
0.1365 	1
0.1372 	1
0.1379 	1
0.1386 	1
0.1393 	1
0.14 	1
0.1407 	1
0.1414 	1
0.1421 	1
0.1428 	1
0.1435 	1
0.1442 	1
0.1449 	1
0.1456 	1
0.1463 	1
0.147 	1
0.1477 	1
0.1484 	1
0.1491 	1
0.1498 	1
0.1505 	1
0.1512 	1
0.1519 	1
0.1526 	1
0.1533 	1
0.154 	1
0.1547 	1
0.1554 	1
0.1561 	1
0.1568 	1
0.1575 	1
0.1582 	1
0.1589 	1
0.1596 	1
0.1603 	1
0.161 	1
0.1617 	1
0.1624 	1
0.1631 	1
0.1638 	1
0.1645 	1
0.1652 	1
0.1659 	1
0.1666 	1
0.1673 	1
0.168 	1
0.1687 	1
0.1694 	1
0.1701 	1
0.1708 	1
0.1715 	1
0.1722 	1
0.1729 	1
0.1736 	1
0.1743 	1
0.175 	1
0.1757 	1
0.1764 	1
0.1771 	1
0.1778 	1
0.1785 	1
0.1792 	1
0.1799 	1
0.1806 	1
0.1813 	1
0.182 	1
0.1827 	1
0.1834 	1
0.1841 	1
0.1848 	1
0.1855 	1
0.1862 	1
0.1869 	1
0.1876 	1
0.1883 	1
0.189 	1
0.1897 	1
0.1904 	1
0.1911 	1
0.1918 	1
0.1925 	1
0.1932 	1
0.1939 	1
0.1946 	1
0.1953 	1
0.196 	1
0.1967 	1
0.1974 	1
0.1981 	1
0.1988 	1
0.1995 	1
0.2002 	1
0.2009 	1
0.2016 	1
0.2023 	1
0.203 	1
0.2037 	1
0.2044 	1
0.2051 	1
0.2058 	1
0.2065 	1
0.2072 	1
0.2079 	1
0.2086 	1
0.2093 	1
0.21 	1
0.2107 	1
0.2114 	1
0.2121 	0.999999
0.2128 	0.999997
0.2135 	0.999996
0.2142 	0.999994
0.2149 	0.999992
0.2156 	0.999993
0.2163 	0.99999
0.217 	0.999836
0.2177 	0.999543
0.2184 	0.99925
0.2191 	0.998935
0.2198 	0.998597
0.2205 	0.998515
0.2212 	0.998535
0.2219 	0.994652
0.2226 	0.986862
0.2233 	0.979072
0.224 	0.970393
0.2247 	0.960112
0.2254 	0.952695
0.2261 	0.947426
0.2268 	0.923433
0.2275 	0.879896
0.2282 	0.836359
0.2289 	0.78848
0.2296 	0.724679
0.2303 	0.663267
0.231 	0.605041
0.2317 	0.545169
0.2324 	0.484778
0.2331 	0.424387
0.2338 	0.363812
0.2345 	0.300857
0.2352 	0.236595
0.2359 	0.169064
0.2366 	0.113228
0.2373 	0.0847642
0.238 	0.0586742
0.2387 	0.0325842
0.2394 	0.0282035
0.2401 	0.0246766
0.2408 	0.0162549
0.2415 	0.00844136
0.2422 	0.00528121
0.2429 	0.00347027
0.2436 	0.00165932
0.2443 	0.00118236
0.245 	0.00106918
0.2457 	0.000731477
0.2464 	0.000408917
0.2471 	0.000252254
0.2478 	0.000174969
0.2485 	9.76838e-05
0.2492 	6.56886e-05
0.2499 	5.88531e-05
0.2506 	4.22084e-05
0.2513 	2.421e-05
0.252 	1.42877e-05
0.2527 	1.00303e-05
0.2534 	5.77286e-06
0.2541 	3.4789e-06
0.2548 	3.14829e-06
0.2555 	2.35564e-06
0.2562 	1.37817e-06
0.2569 	7.54122e-07
0.2576 	5.35268e-07
0.2583 	3.16413e-07
0.259 	1.70462e-07
0.2597 	1.55729e-07
0.2604 	1.21714e-07
0.2611 	7.32394e-08
0.2618 	3.67899e-08
0.2625 	2.63715e-08
0.2632 	1.59531e-08
0.2639 	7.64266e-09
0.2646 	7.06088e-09
0.2653 	5.78256e-09
0.266 	3.57551e-09
0.2667 	1.65807e-09
0.2674 	1.20443e-09
0.2681 	7.50791e-10
0.2688 	3.28012e-10
0.2695 	3.0631e-10
0.2702 	2.64281e-10
0.2709 	1.71434e-10
0.2716 	8.73202e-11
0.2723 	6.06209e-11
0.273 	4.15477e-11
0.2737 	2.24745e-11
0.2744 	1.95153e-11
0.2751 	1.73783e-11
0.2758 	1.27383e-11
0.2765 	8.4282e-12
0.2772 	6.47253e-12
0.2779 	5.19776e-12
0.2786 	3.92299e-12
0.2793 	3.36898e-12
0.28 	3.01153e-12
0.2807 	2.47277e-12
0.2814 	1.95904e-12
0.2821 	1.65108e-12
0.2828 	1.42646e-12
0.2835 	1.20184e-12
0.2842 	1.0519e-12
0.2849 	9.43439e-13
0.2856 	8.17061e-13
0.2863 	6.89507e-13
0.287 	5.99353e-13
0.2877 	5.27232e-13
0.2884 	4.5511e-13
0.2891 	3.95605e-13
0.2898 	3.48717e-13
0.2905 	2.97556e-13
0.2912 	2.44686e-13
0.2919 	2.06443e-13
0.2926 	1.77481e-13
0.2933 	1.48518e-13
0.294 	1.23836e-13
0.2947 	1.0686e-13
0.2954 	8.81953e-14
0.2961 	6.82634e-14
0.2968 	5.33705e-14
0.2975 	4.41194e-14
0.2982 	3.48683e-14
0.2989 	2.67764e-14
0.2996 	2.29341e-14
0.3003 	1.87316e-14
0.301 	1.4049e-14
0.3017 	1.02418e-14
0.3024 	8.25943e-15
0.3031 	6.27702e-15
0.3038 	4.39099e-15
0.3045 	3.7577e-15
0.3052 	3.08592e-15
0.3059 	2.31787e-15
0.3066 	1.66416e-15
0.3073 	1.31102e-15
0.308 	9.88052e-16
0.3087 	6.65088e-16
0.3094 	5.53933e-16
0.3101 	4.56375e-16
0.3108 	3.42667e-16
0.3115 	2.4151e-16
0.3122 	1.85187e-16
0.3129 	1.37638e-16
0.3136 	9.00887e-17
0.3143 	7.01165e-17
0.315 	5.76648e-17
0.3157 	4.28704e-17
0.3164 	2.9111e-17
0.3171 	2.14163e-17
0.3178 	1.54084e-17
0.3185 	9.40048e-18
0.3192 	6.49559e-18
0.3199 	5.31449e-18
0.3206 	3.96577e-18
0.3213 	2.62296e-18
0.322 	1.86963e-18
0.3227 	1.31392e-18
0.3234 	7.58212e-19
0.3241 	4.39606e-19
0.3248 	3.58089e-19
0.3255 	2.69136e-19
0.3262 	1.77207e-19
0.3269 	1.22445e-19
0.3276 	8.46794e-20
0.3283 	4.69142e-20
0.329 	2.12046e-20
0.3297 	1.71937e-20
0.3304 	1.30081e-20
0.3311 	8.69151e-21
0.3318 	5.83145e-21
0.3325 	3.98428e-21
0.3332 	2.13711e-21
0.3339 	6.58773e-22
0.3346 	5.32726e-22
0.3353 	4.05626e-22
0.336 	2.77122e-22
0.3367 	1.85124e-22
0.3374 	1.25914e-22
0.3381 	6.67051e-23
0.3388 	1.157e-23
0.3395 	9.3876e-24
0.3402 	7.21856e-24
0.3409 	5.08291e-24
0.3416 	3.49012e-24
0.3423 	2.3903e-24
0.343 	1.28212e-24
0.3437 	1.73934e-25
0.3444 	7.95169e-26
0.3451 	6.29806e-26
0.3458 	4.59268e-26
0.3465 	3.25296e-26
0.3472 	2.31997e-26
0.3479 	1.28579e-26
0.3486 	2.51599e-27
0.3493 	2.68464e-28
0.35 	2.28314e-28
0.3507 	1.72114e-28
0.3514 	1.2443e-28
0.3521 	9.45671e-29
0.3528 	5.45736e-29
0.3535 	1.45801e-29
0.3542 	2.86379e-31
0.3549 	2.69522e-31
0.3556 	2.13781e-31
0.3563 	1.55162e-31
0.357 	1.26805e-31
0.3577 	7.6111e-32
0.3584 	2.54169e-32
0.3591 	7.24113e-35
0.3598 	7.62033e-35
0.3605 	6.49533e-35
0.3612 	4.76865e-35
0.3619 	4.08838e-35
0.3626 	2.54163e-35
0.3633 	9.94877e-36
0.364 	5.70693e-39
0.3647 	6.08147e-39
0.3654 	5.44714e-39
0.3661 	4.05614e-39
0.3668 	3.49194e-39
0.3675 	2.23863e-39
0.3682 	9.85321e-40
0.3689 	6.03979e-43
0.3696 	6.43059e-43
0.3703 	6.0183e-43
0.371 	4.53522e-43
0.3717 	3.90822e-43
0.3724 	2.57709e-43
0.3731 	1.24114e-43
0.3738 	6.44523e-47
0.3745 	6.88993e-47
0.3752 	6.749e-47
0.3759 	5.14402e-47
0.3766 	4.26122e-47
0.3773 	3.00222e-47
0.378 	1.5532e-47
0.3787 	1.04183e-48
0.3794 	7.48152e-51
0.3801 	7.67051e-51
0.3808 	5.90817e-51
0.3815 	4.71363e-51
0.3822 	3.53248e-51
0.3829 	1.9375e-51
0.3836 	3.42518e-52
0.3843 	8.04132e-55
0.385 	8.62301e-55
0.3857 	6.70633e-55
0.3864 	5.16091e-55
0.3871 	4.09775e-55
0.3878 	2.35964e-55
0.3885 	6.2153e-56
0.3892 	8.40665e-59
0.3899 	9.04271e-59
0.3906 	7.39462e-59
0.3913 	5.49703e-59
0.392 	4.60808e-59
0.3927 	2.76517e-59
0.3934 	9.22249e-60
0.3941 	8.48612e-63
0.3948 	9.15411e-63
0.3955 	7.86313e-63
0.3962 	5.78855e-63
0.3969 	4.9885e-63
0.3976 	3.10125e-63
0.3983 	1.214e-63
0.399 	8.2304e-67
0.3997 	8.90614e-67
0.4004 	8.02991e-67
0.4011 	5.98968e-67
0.4018 	5.17897e-67
0.4025 	3.32012e-67
0.4032 	1.46126e-67
0.4039 	7.66867e-71
0.4046 	8.32547e-71
0.4053 	7.87395e-71
0.406 	5.94468e-71
0.4067 	5.14357e-71
0.4074 	3.39579e-71
0.4081 	1.63535e-71
0.4088 	6.87624e-75
0.4095 	7.4932e-75
0.4102 	7.43159e-75
0.4109 	5.67355e-75
0.4116 	4.71648e-75
0.4123 	3.3292e-75
0.413 	1.72228e-75
0.4137 	1.15358e-76
0.4144 	6.51355e-79
0.4151 	6.77191e-79
0.4158 	5.22335e-79
0.4165 	4.1796e-79
0.4172 	3.13994e-79
0.4179 	1.72212e-79
0.4186 	3.04309e-80
0.4193 	5.49164e-83
0.42 	5.98575e-83
0.4207 	4.66125e-83
0.4214 	3.5963e-83
0.4221 	2.86416e-83
0.4228 	1.64924e-83
0.4235 	4.3431e-84
0.4242 	4.51361e-87
0.4249 	4.93858e-87
0.4256 	4.05177e-87
0.4263 	3.01868e-87
0.427 	2.53983e-87
0.4277 	1.52403e-87
0.4284 	5.08231e-88
0.4291 	3.63092e-91
0.4298 	3.99028e-91
0.4305 	3.44706e-91
0.4312 	2.5428e-91
0.4319 	2.20087e-91
0.4326 	1.36821e-91
0.4333 	5.35542e-92
0.434 	2.73473e-95
0.4347 	2.91008e-95
0.4354 	2.63615e-95
0.4361 	2.02527e-95
0.4368 	1.7698e-95
0.4375 	1.10412e-95
0.4382 	4.38443e-96
0.4389 	-9.85664e-97
0.4396 	-1.63828e-96
0.4403 	-1.70396e-96
0.441 	-9.87079e-97
0.4417 	-7.25057e-97
0.4424 	-4.86582e-97
0.4431 	-2.45377e-97
0.4438 	-3.31982e-98
0.4445 	-1.98295e-97
0.4452 	-2.68532e-97
0.4459 	-1.01616e-97
0.4466 	-1.78665e-98
0.4473 	-1.27971e-98
0.448 	-6.90298e-99
0.4487 	-1.00883e-99
0.4494 	-4.92256e-98
0.4501 	-8.66292e-98
0.4508 	-3.41849e-98
0.4515 	-4.25707e-100
0.4522 	-3.1435e-100
0.4529 	-2.08402e-100
0.4536 	-1.02453e-100
0.4543 	-1.28367e-98
0.455 	-2.90726e-98
0.4557 	-1.28242e-98
0.4564 	-4.90841e-101
0.4571 	-3.01002e-101
0.4578 	-2.69388e-101
0.4585 	-2.37775e-101
0.4592 	-3.11748e-99
0.4599 	-7.93156e-99
0.4606 	-4.48979e-99
0.4613 	-1.52584e-101
0.462 	-7.9898e-102
0.4627 	-7.36453e-102
0.4634 	-6.73926e-102
0.4641 	-6.89053e-100
0.4648 	-2.05427e-99
0.4655 	-1.46843e-99
0.4662 	-1.0217e-100
0.4669 	-2.20791e-102
0.4676 	-2.03384e-102
0.4683 	-1.85977e-102
0.469 	-1.34167e-100
0.4697 	-5.04926e-100
0.4704 	-4.51798e-100
0.4711 	-8.07541e-101
0.4718 	-5.87102e-103
0.4725 	-5.40136e-103
0.4732 	-4.93171e-103
0.4739 	-2.1156e-101
0.4746 	-1.17749e-100
0.4753 	-1.31516e-100
0.476 	-3.48488e-101
0.4767 	-1.54319e-103
0.4774 	-1.38197e-103
0.4781 	-1.25947e-103
0.4788 	-1.84228e-102
0.4795 	-2.60256e-101
0.4802 	-3.63845e-101
0.4809 	-1.21826e-101
0.4816 	-4.75417e-104
0.4823 	-3.41675e-104
0.483 	-3.10439e-104
0.4837 	-2.79202e-104
0.4844 	-5.43748e-102
0.4851 	-9.59816e-102
0.4858 	-3.76784e-102
0.4865 	-1.37474e-104
0.4872 	-8.16199e-105
0.4879 	-7.38053e-105
0.4886 	-6.59907e-105
0.4893 	-1.0686e-102
0.49 	-2.42042e-102
0.4907 	-1.06756e-102
0.4914 	-3.73302e-105
0.4921 	-1.87001e-105
0.4928 	-1.68308e-105
0.4935 	-1.49615e-105
0.4942 	-1.95989e-103
0.4949 	-4.98631e-103
0.4956 	-2.8226e-103
0.4963 	-9.53333e-106
0.497 	-4.06825e-106
0.4977 	-3.66023e-106
0.4984 	-3.2522e-106
0.4991 	-3.30348e-104
0.4998 	-9.84929e-104
0.5005 	-7.04043e-104
0.5012 	-4.89699e-105
0.5019 	-8.44379e-107
0.5026 	-7.62773e-107
0.5033 	-6.81166e-107
0.504 	-4.95094e-105
0.5047 	-1.8637e-104
0.5054 	-1.66761e-104
0.5061 	-2.97992e-105
0.5068 	-1.70092e-107
0.5075 	-1.54136e-107
0.5082 	-1.38179e-107
0.5089 	-6.05452e-106
0.5096 	-3.37208e-105
0.5103 	-3.76646e-105
0.511 	-9.9782e-106
0.5117 	-3.49366e-108
0.5124 	-3.02881e-108
0.5131 	-2.71883e-108
0.5138 	-4.11002e-107
0.5145 	-5.82366e-106
0.5152 	-8.14227e-106
0.5159 	-2.72576e-106
0.5166 	-9.00381e-109
0.5173 	-5.77475e-109
0.518 	-5.18495e-109
0.5187 	-4.59515e-109
0.5194 	-9.57049e-107
0.5201 	-1.68962e-106
0.5208 	-6.63159e-107
0.5215 	-2.12625e-109
0.5222 	-1.0672e-109
0.5229 	-9.58313e-110
0.5236 	-8.49426e-110
0.5243 	-1.48888e-107
0.525 	-3.37327e-107
0.5257 	-1.48759e-107
0.5264 	-4.68946e-110
0.5271 	-1.91303e-110
0.5278 	-1.71826e-110
0.5285 	-1.52349e-110
0.5292 	-2.17393e-108
0.5299 	-5.53291e-108
0.5306 	-3.13171e-108
0.5313 	-9.77365e-111
0.532 	-3.33319e-111
0.5327 	-2.99517e-111
0.5334 	-2.65715e-111
0.5341 	-2.9339e-109
0.5348 	-8.75179e-109
0.5355 	-6.25569e-109
0.5362 	-4.33992e-110
0.5369 	-5.66276e-112
0.5376 	-5.09151e-112
0.5383 	-4.52026e-112
0.539 	-3.54701e-110
0.5397 	-1.3362e-109
0.5404 	-1.19562e-109
0.5411 	-2.13494e-110
0.5418 	-9.40553e-113
0.5425 	-8.4615e-113
0.5432 	-7.51747e-113
0.5439 	-3.53702e-111
0.5446 	-1.97259e-110
0.5453 	-2.20342e-110
0.546 	-5.83506e-111
0.5467 	-1.63601e-113
0.5474 	-1.37399e-113
0.5481 	-1.22147e-113
0.5488 	-1.97607e-112
0.5495 	-2.81242e-111
0.5502 	-3.93259e-111
0.5509 	-1.31616e-111
0.5516 	-3.74834e-114
0.5523 	-2.17374e-114
0.553 	-1.9339e-114
0.5537 	-1.69406e-114
0.5544 	-3.84467e-112
0.5551 	-6.78881e-112
0.5558 	-2.66403e-112
0.5565 	-7.6458e-115
0.5572 	-3.34459e-115
0.5579 	-2.97808e-115
0.5586 	-2.61157e-115
0.5593 	-4.9928e-113
0.56 	-1.13149e-112
0.5607 	-4.98908e-113
0.5614 	-1.43986e-115
0.5621 	-5.00774e-116
0.5628 	-4.4633e-116
0.5635 	-3.91886e-116
0.5642 	-6.10117e-114
0.5649 	-1.55337e-113
0.5656 	-8.79157e-114
0.5663 	-2.549e-116
0.567 	-7.30779e-117
0.5677 	-6.52027e-117
0.5684 	-5.73274e-117
0.5691 	-6.90704e-115
0.5698 	-2.0614e-114
0.5705 	-1.47341e-114
0.5712 	-1.01956e-115
0.5719 	-1.04178e-117
0.5726 	-9.30597e-118
0.5733 	-8.19418e-118
0.574 	-7.01711e-116
0.5747 	-2.64549e-115
0.5754 	-2.3672e-115
0.5761 	-4.22367e-116
0.5768 	-1.45513e-118
0.5775 	-1.30146e-118
0.5782 	-1.1478e-118
0.5789 	-5.88154e-117
0.5796 	-3.28477e-116
0.5803 	-3.66939e-116
0.581 	-9.71327e-117
0.5817 	-2.20272e-119
0.5824 	-1.78794e-119
0.5831 	-1.57917e-119
0.5838 	-2.76255e-118
0.5845 	-3.94918e-117
0.5852 	-5.52274e-117
0.5859 	-1.84788e-117
0.5866 	-4.59811e-120
0.5873 	-2.41297e-120
0.588 	-2.1343e-120
0.5887 	-1.85562e-120
0.5894 	-4.5862e-118
0.5901 	-8.09951e-118
0.5908 	-3.17784e-118
0.5915 	-8.28807e-121
0.5922 	-3.1946e-121
0.5929 	-2.83001e-121
0.5936 	-2.46542e-121
0.5943 	-5.10225e-119
0.595 	-1.15655e-118
0.5957 	-5.099e-119
0.5964 	-1.36901e-121
0.5971 	-4.15104e-122
0.5978 	-3.68299e-122
0.5985 	-3.21495e-122
0.5992 	-5.38442e-120
0.5999 	-1.37126e-119
0.6006 	-7.76037e-120
0.6013 	-2.12573e-122
0.602 	-5.29869e-123
0.6027 	-4.70815e-123
0.6034 	-4.1176e-123
0.6041 	-5.30791e-121
0.6048 	-1.5847e-120
0.6055 	-1.13266e-120
0.6062 	-7.82392e-122
0.6069 	-6.646e-124
0.6076 	-5.91435e-124
0.6083 	-5.18269e-124
0.609 	-4.72803e-122
0.6097 	-1.78341e-121
0.6104 	-1.59582e-121
0.6111 	-2.84593e-122
0.6118 	-8.18981e-125
0.6125 	-7.29886e-125
0.6132 	-6.40791e-125
0.6139 	-3.48735e-123
0.6146 	-1.94943e-122
0.6153 	-2.17778e-122
0.616 	-5.76336e-123
0.6167 	-1.12581e-125
0.6174 	-8.8541e-126
0.6181 	-7.78837e-126
0.6188 	-1.43987e-124
0.6195 	-2.06426e-123
0.6202 	-2.88699e-123
0.6209 	-9.65827e-124
0.6216 	-2.19304e-126
0.6223 	-1.05696e-126
0.623 	-9.31404e-127
0.6237 	-8.05853e-127
0.6244 	-2.11286e-124
0.6251 	-3.73183e-124
0.6258 	-1.46404e-124
0.6265 	-3.58414e-127
0.6272 	-1.2409e-127
0.6279 	-1.09547e-127
0.6286 	-9.5004e-128
0.6293 	-2.07798e-125
0.63 	-4.71094e-125
0.6307 	-2.07681e-125
0.6314 	-5.32084e-128
0.6321 	-1.43175e-128
0.6328 	-1.26624e-128
0.6335 	-1.10072e-128
0.6342 	-1.94197e-126
0.6349 	-4.94655e-126
0.6356 	-2.7993e-126
0.6363 	-7.39898e-129
0.637 	-1.62528e-129
0.6377 	-1.43996e-129
0.6384 	-1.25465e-129
0.6391 	-1.6972e-127
0.6398 	-5.06827e-127
0.6405 	-3.62249e-127
0.6412 	-2.49972e-128
0.6419 	-1.81888e-130
0.6426 	-1.6144e-130
0.6433 	-1.40993e-130
0.644 	-1.34418e-128
0.6447 	-5.07196e-128
0.6454 	-4.53851e-128
0.6461 	-8.0916e-129
0.6468 	-2.00929e-131
0.6475 	-1.78658e-131
0.6482 	-1.56386e-131
0.6489 	-8.85331e-130
0.6496 	-4.95181e-129
0.6503 	-5.53201e-129
0.651 	-1.46382e-129
0.6517 	-2.56192e-132
0.6524 	-1.95573e-132
0.6531 	-1.71584e-132
0.6538 	-3.28517e-131
0.6545 	-4.7179e-130
0.6552 	-6.59855e-130
0.6559 	-2.20734e-130
0.6566 	-4.72828e-133
0.6573 	-2.12178e-133
0.658 	-1.86612e-133
0.6587 	-1.61047e-133
0.6594 	-4.37856e-131
0.6601 	-7.73412e-131
0.6608 	-3.03403e-131
0.6615 	-7.16922e-134
0.6622 	-2.2887e-134
0.6629 	-2.01832e-134
0.6636 	-1.74794e-134
0.6643 	-3.94713e-132
0.665 	-8.94917e-132
0.6657 	-3.94511e-132
0.6664 	-9.88686e-135
0.6671 	-2.46871e-135
0.6678 	-2.18377e-135
0.6685 	-1.89884e-135
0.6692 	-3.446e-133
0.6699 	-8.77839e-133
0.6706 	-4.96771e-133
0.6713 	-1.29499e-135
0.672 	-2.68569e-136
0.6727 	-2.38463e-136
0.6734 	-2.08358e-136
0.6741 	-2.88956e-134
0.6748 	-8.62988e-134
0.6755 	-6.16811e-134
0.6762 	-4.25508e-135
0.6769 	-2.98574e-137
0.6776 	-2.66285e-137
0.6783 	-2.33996e-137
0.679 	-2.27946e-135
0.6797 	-8.602e-135
0.6804 	-7.69734e-135
0.6811 	-1.37228e-135
0.6818 	-3.42205e-138
0.6825 	-3.06505e-138
0.6832 	-2.70806e-138
0.6839 	-1.56048e-136
0.6846 	-8.72898e-136
0.6853 	-9.75182e-136
0.686 	-2.58042e-136
0.6867 	-4.63056e-139
0.6874 	-3.55197e-139
0.6881 	-3.14128e-139
0.6888 	-6.06371e-138
0.6895 	-8.7077e-137
0.6902 	-1.21787e-136
0.6909 	-4.07402e-137
0.6916 	-8.61834e-140
0.6923 	-3.74453e-140
0.693 	-3.26736e-140
0.6937 	-2.79019e-140
0.6944 	-7.49e-138
0.6951 	-1.32297e-137
0.6958 	-5.18977e-138
0.6965 	-1.16781e-140
0.6972 	-2.99615e-141
0.6979 	-2.50949e-141
0.6986 	-2.02283e-141
0.6993 	-1.75178e-141
0.7 	-1.53952e-141
