0 	1
0.0007 	1
0.0014 	1
0.0021 	1
0.0028 	1
0.0035 	1
0.0042 	1
0.0049 	1
0.0056 	1
0.0063 	1
0.007 	1
0.0077 	1
0.0084 	1
0.0091 	1
0.0098 	1
0.0105 	1
0.0112 	1
0.0119 	1
0.0126 	1
0.0133 	1
0.014 	1
0.0147 	1
0.0154 	1
0.0161 	1
0.0168 	1
0.0175 	1
0.0182 	1
0.0189 	1
0.0196 	1
0.0203 	1
0.021 	1
0.0217 	1
0.0224 	1
0.0231 	1
0.0238 	1
0.0245 	1
0.0252 	1
0.0259 	1
0.0266 	1
0.0273 	1
0.028 	1
0.0287 	1
0.0294 	1
0.0301 	1
0.0308 	1
0.0315 	1
0.0322 	1
0.0329 	1
0.0336 	1
0.0343 	1
0.035 	1
0.0357 	1
0.0364 	1
0.0371 	1
0.0378 	1
0.0385 	1
0.0392 	1
0.0399 	1
0.0406 	1
0.0413 	1
0.042 	1
0.0427 	1
0.0434 	1
0.0441 	1
0.0448 	1
0.0455 	1
0.0462 	1
0.0469 	1
0.0476 	1
0.0483 	1
0.049 	1
0.0497 	1
0.0504 	1
0.0511 	1
0.0518 	1
0.0525 	1
0.0532 	1
0.0539 	1
0.0546 	1
0.0553 	1
0.056 	1
0.0567 	1
0.0574 	1
0.0581 	1
0.0588 	1
0.0595 	1
0.0602 	1
0.0609 	1
0.0616 	1
0.0623 	1
0.063 	1
0.0637 	1
0.0644 	1
0.0651 	1
0.0658 	1
0.0665 	1
0.0672 	1
0.0679 	1
0.0686 	1
0.0693 	1
0.07 	1
0.0707 	1
0.0714 	1
0.0721 	1
0.0728 	1
0.0735 	1
0.0742 	1
0.0749 	1
0.0756 	1
0.0763 	1
0.077 	1
0.0777 	1
0.0784 	1
0.0791 	1
0.0798 	1
0.0805 	1
0.0812 	1
0.0819 	1
0.0826 	1
0.0833 	1
0.084 	1
0.0847 	1
0.0854 	1
0.0861 	1
0.0868 	1
0.0875 	1
0.0882 	1
0.0889 	1
0.0896 	1
0.0903 	1
0.091 	1
0.0917 	1
0.0924 	1
0.0931 	1
0.0938 	1
0.0945 	1
0.0952 	1
0.0959 	1
0.0966 	1
0.0973 	1
0.098 	1
0.0987 	1
0.0994 	1
0.1001 	1
0.1008 	1
0.1015 	1
0.1022 	1
0.1029 	1
0.1036 	1
0.1043 	1
0.105 	1
0.1057 	1
0.1064 	1
0.1071 	1
0.1078 	1
0.1085 	1
0.1092 	1
0.1099 	1
0.1106 	1
0.1113 	1
0.112 	1
0.1127 	1
0.1134 	1
0.1141 	1
0.1148 	1
0.1155 	1
0.1162 	1
0.1169 	1
0.1176 	1
0.1183 	1
0.119 	1
0.1197 	1
0.1204 	1
0.1211 	1
0.1218 	1
0.1225 	1
0.1232 	1
0.1239 	1
0.1246 	1
0.1253 	1
0.126 	1
0.1267 	1
0.1274 	1
0.1281 	1
0.1288 	1
0.1295 	1
0.1302 	1
0.1309 	1
0.1316 	1
0.1323 	1
0.133 	1
0.1337 	1
0.1344 	1
0.1351 	1
0.1358 	1
0.1365 	1
0.1372 	1
0.1379 	1
0.1386 	1
0.1393 	1
0.14 	1
0.1407 	1
0.1414 	1
0.1421 	1
0.1428 	1
0.1435 	1
0.1442 	1
0.1449 	1
0.1456 	1
0.1463 	1
0.147 	1
0.1477 	1
0.1484 	1
0.1491 	1
0.1498 	1
0.1505 	1
0.1512 	1
0.1519 	1
0.1526 	1
0.1533 	1
0.154 	1
0.1547 	1
0.1554 	1
0.1561 	1
0.1568 	1
0.1575 	1
0.1582 	1
0.1589 	1
0.1596 	1
0.1603 	1
0.161 	1
0.1617 	1
0.1624 	1
0.1631 	1
0.1638 	1
0.1645 	1
0.1652 	1
0.1659 	1
0.1666 	1
0.1673 	1
0.168 	1
0.1687 	1
0.1694 	1
0.1701 	1
0.1708 	1
0.1715 	1
0.1722 	1
0.1729 	1
0.1736 	1
0.1743 	1
0.175 	1
0.1757 	1
0.1764 	1
0.1771 	1
0.1778 	1
0.1785 	1
0.1792 	1
0.1799 	1
0.1806 	1
0.1813 	1
0.182 	1
0.1827 	1
0.1834 	1
0.1841 	1
0.1848 	1
0.1855 	1
0.1862 	1
0.1869 	1
0.1876 	1
0.1883 	1
0.189 	1
0.1897 	1
0.1904 	1
0.1911 	1
0.1918 	1
0.1925 	1
0.1932 	1
0.1939 	1
0.1946 	1
0.1953 	1
0.196 	1
0.1967 	1
0.1974 	1
0.1981 	1
0.1988 	1
0.1995 	1
0.2002 	1
0.2009 	1
0.2016 	1
0.2023 	1
0.203 	1
0.2037 	1
0.2044 	1
0.2051 	1
0.2058 	1
0.2065 	1
0.2072 	1
0.2079 	1
0.2086 	1
0.2093 	1
0.21 	1
0.2107 	1
0.2114 	1
0.2121 	1
0.2128 	1
0.2135 	1
0.2142 	1
0.2149 	1
0.2156 	1
0.2163 	1
0.217 	1
0.2177 	1
0.2184 	1
0.2191 	1
0.2198 	1
0.2205 	1
0.2212 	1
0.2219 	1
0.2226 	1
0.2233 	1
0.224 	1
0.2247 	1
0.2254 	1
0.2261 	1
0.2268 	1
0.2275 	1
0.2282 	1
0.2289 	1
0.2296 	1
0.2303 	1
0.231 	1
0.2317 	1
0.2324 	1
0.2331 	1
0.2338 	1
0.2345 	1
0.2352 	1
0.2359 	1
0.2366 	1
0.2373 	1
0.238 	1
0.2387 	1
0.2394 	1
0.2401 	1
0.2408 	1
0.2415 	1
0.2422 	1
0.2429 	1
0.2436 	1
0.2443 	1
0.245 	1
0.2457 	1
0.2464 	1
0.2471 	1
0.2478 	1
0.2485 	1
0.2492 	1
0.2499 	1
0.2506 	1
0.2513 	1
0.252 	1
0.2527 	1
0.2534 	1
0.2541 	1
0.2548 	1
0.2555 	1
0.2562 	1
0.2569 	1
0.2576 	0.999998
0.2583 	0.999995
0.259 	0.999991
0.2597 	0.999987
0.2604 	0.999986
0.2611 	0.999988
0.2618 	0.999918
0.2625 	0.999765
0.2632 	0.999291
0.2639 	0.998798
0.2646 	0.998233
0.2653 	0.997884
0.266 	0.997823
0.2667 	0.995338
0.2674 	0.991376
0.2681 	0.980971
0.2688 	0.970298
0.2695 	0.956122
0.2702 	0.943439
0.2709 	0.93449
0.2716 	0.914019
0.2723 	0.882027
0.273 	0.835082
0.2737 	0.786015
0.2744 	0.715541
0.2751 	0.643812
0.2758 	0.574437
0.2765 	0.507687
0.2772 	0.445661
0.2779 	0.386257
0.2786 	0.327816
0.2793 	0.275151
0.28 	0.22406
0.2807 	0.167632
0.2814 	0.115209
0.2821 	0.0774711
0.2828 	0.0499064
0.2835 	0.0295066
0.2842 	0.0211283
0.2849 	0.0194284
0.2856 	0.0147362
0.2863 	0.00962102
0.287 	0.00549132
0.2877 	0.002682
0.2884 	0.00153767
0.2891 	0.000925438
0.2898 	0.00084531
0.2905 	0.000666382
0.2912 	0.000447935
0.2919 	0.000272816
0.2926 	0.000136848
0.2933 	8.53363e-05
0.294 	5.05372e-05
0.2947 	4.58215e-05
0.2954 	3.67893e-05
0.2961 	2.45199e-05
0.2968 	1.43833e-05
0.2975 	5.8692e-06
0.2982 	3.10213e-06
0.2989 	9.186e-07
0.2996 	8.74636e-07
0.3003 	7.45045e-07
0.301 	5.01285e-07
0.3017 	2.85395e-07
0.3024 	8.63771e-08
0.3031 	4.28679e-08
0.3038 	2.46598e-09
0.3045 	2.45592e-09
0.3052 	2.24747e-09
0.3059 	1.54303e-09
0.3066 	8.90573e-10
0.3073 	2.90098e-10
0.308 	1.1891e-10
0.3087 	1.50924e-11
0.3094 	8.05173e-12
0.3101 	8.4077e-12
0.3108 	8.47947e-12
0.3115 	8.58829e-12
0.3122 	8.76378e-12
0.3129 	9.06331e-12
0.3136 	9.41111e-12
0.3143 	9.84166e-12
0.315 	1.02948e-11
0.3157 	1.07495e-11
0.3164 	1.11625e-11
0.3171 	1.1422e-11
0.3178 	1.15882e-11
0.3185 	1.16854e-11
0.3192 	1.16578e-11
0.3199 	1.15607e-11
0.3206 	1.1499e-11
0.3213 	1.14312e-11
0.322 	1.12077e-11
0.3227 	1.09351e-11
0.3234 	1.05974e-11
0.3241 	1.01757e-11
0.3248 	9.67001e-12
0.3255 	9.19242e-12
0.3262 	8.72608e-12
0.3269 	8.24201e-12
0.3276 	7.74426e-12
0.3283 	7.21582e-12
0.329 	6.68017e-12
0.3297 	6.13155e-12
0.3304 	5.57621e-12
0.3311 	5.01582e-12
0.3318 	4.52056e-12
0.3325 	4.05146e-12
0.3332 	3.63317e-12
0.3339 	3.23242e-12
0.3346 	2.89593e-12
0.3353 	2.54475e-12
0.336 	2.17396e-12
0.3367 	1.85474e-12
0.3374 	1.56418e-12
0.3381 	1.34606e-12
0.3388 	1.13381e-12
0.3395 	9.9546e-13
0.3402 	8.50012e-13
0.3409 	6.86819e-13
0.3416 	5.4529e-13
0.3423 	4.25423e-13
0.343 	3.41832e-13
0.3437 	2.64494e-13
0.3444 	2.27138e-13
0.3451 	1.91519e-13
0.3458 	1.47871e-13
0.3465 	1.08713e-13
0.3472 	7.76348e-14
0.3479 	5.63048e-14
0.3486 	3.89863e-14
0.3493 	3.14865e-14
0.35 	2.66645e-14
0.3507 	1.99327e-14
0.3514 	1.36245e-14
0.3521 	8.86902e-15
0.3528 	5.50929e-15
0.3535 	3.22854e-15
0.3542 	2.21074e-15
0.3549 	1.89455e-15
0.3556 	1.41492e-15
0.3563 	9.18208e-16
0.357 	5.53464e-16
0.3577 	2.79845e-16
0.3584 	1.32312e-16
0.3591 	5.53549e-17
0.3598 	4.89746e-17
0.3605 	3.75988e-17
0.3612 	2.42249e-17
0.3619 	1.39028e-17
0.3626 	5.68872e-18
0.3633 	2.41172e-18
0.364 	2.9785e-19
0.3647 	2.77586e-19
0.3654 	2.24878e-19
0.3661 	1.47837e-19
0.3668 	8.28176e-20
0.3675 	2.7169e-20
0.3682 	1.20745e-20
0.3689 	2.14437e-22
0.3696 	2.1408e-22
0.3703 	1.87502e-22
0.371 	1.25961e-22
0.3717 	7.03583e-23
0.3724 	1.8055e-23
0.3731 	8.41297e-24
0.3738 	1.58764e-26
0.3745 	1.66794e-26
0.3752 	1.58322e-26
0.3759 	1.08596e-26
0.3766 	6.19695e-27
0.3773 	1.84427e-27
0.378 	6.475e-28
0.3787 	4.41954e-29
0.3794 	1.13387e-30
0.3801 	1.11367e-30
0.3808 	7.79332e-31
0.3815 	4.60944e-31
0.3822 	1.71268e-31
0.3829 	5.31188e-32
0.3836 	9.43683e-33
0.3843 	7.8185e-35
0.385 	8.02822e-35
0.3857 	5.71829e-35
0.3864 	3.47434e-35
0.3871 	1.4723e-35
0.3878 	4.10199e-36
0.3885 	1.08322e-36
0.3892 	5.20164e-39
0.3899 	5.36024e-39
0.3906 	4.05576e-39
0.3913 	2.52187e-39
0.392 	1.17565e-39
0.3927 	2.9818e-40
0.3934 	9.96106e-41
0.3941 	3.32717e-43
0.3948 	3.45063e-43
0.3955 	2.76986e-43
0.3962 	1.7674e-43
0.3969 	8.82793e-44
0.3976 	2.05438e-44
0.3983 	8.05114e-45
0.399 	2.05281e-47
0.3997 	2.14428e-47
0.4004 	1.82475e-47
0.4011 	1.19696e-47
0.4018 	6.29639e-48
0.4025 	1.35635e-48
0.4032 	5.97473e-49
0.4039 	1.23093e-51
0.4046 	1.29451e-51
0.4053 	1.1669e-51
0.406 	7.84339e-52
0.4067 	4.31053e-52
0.4074 	9.40279e-53
0.4081 	4.18295e-53
0.4088 	7.2327e-56
0.4095 	7.65194e-56
0.4102 	7.29851e-56
0.4109 	5.01343e-56
0.4116 	2.86088e-56
0.4123 	8.40865e-57
0.413 	2.81362e-57
0.4137 	1.91499e-58
0.4144 	4.45894e-60
0.4151 	4.49491e-60
0.4158 	3.14825e-60
0.4165 	1.85614e-60
0.4172 	6.62203e-61
0.4179 	1.84017e-61
0.4186 	3.26745e-62
0.4193 	2.57393e-64
0.42 	2.73931e-64
0.4207 	1.95254e-64
0.4214 	1.1845e-64
0.4221 	4.85151e-65
0.4228 	1.17912e-65
0.4235 	3.11331e-66
0.4242 	1.47529e-68
0.4249 	1.5768e-68
0.4256 	1.19966e-68
0.4263 	7.46296e-69
0.427 	3.39138e-69
0.4277 	7.42764e-70
0.4284 	2.48127e-70
0.4291 	8.22697e-73
0.4298 	8.49646e-73
0.4305 	6.9375e-73
0.4312 	4.64718e-73
0.4319 	2.29223e-73
0.4326 	4.59476e-74
0.4333 	1.79189e-74
0.434 	-1.81816e-74
0.4347 	-6.88114e-74
0.4354 	-6.15973e-74
0.4361 	-1.10003e-74
0.4368 	-1.87266e-76
0.4375 	-2.21046e-76
0.4382 	-2.27925e-76
0.4389 	-1.3587e-74
0.4396 	-7.59031e-74
0.4403 	-8.48116e-74
0.441 	-2.25097e-74
0.4417 	-2.66736e-76
0.4424 	-2.78612e-76
0.4431 	-2.80523e-76
0.4438 	-4.65153e-75
0.4445 	-6.58233e-74
0.4452 	-9.20389e-74
0.4459 	-3.08642e-74
0.4466 	-2.74209e-76
0.4473 	-2.68782e-76
0.448 	-2.66235e-76
0.4487 	-2.64316e-76
0.4494 	-4.94843e-74
0.4501 	-8.73444e-74
0.4508 	-3.4329e-74
0.4515 	-2.43371e-76
0.4522 	-2.31118e-76
0.4529 	-2.25067e-76
0.4536 	-2.21983e-76
0.4543 	-3.34798e-74
0.455 	-7.58086e-74
0.4557 	-3.34688e-74
0.4564 	-1.9878e-76
0.4571 	-1.84775e-76
0.4578 	-1.76515e-76
0.4585 	-1.73307e-76
0.4592 	-2.05561e-74
0.4599 	-5.22643e-74
0.4606 	-2.96067e-74
0.4613 	-1.52811e-76
0.462 	-1.39699e-76
0.4627 	-1.30573e-76
0.4634 	-1.27742e-76
0.4641 	-1.13573e-74
0.4648 	-3.38192e-74
0.4655 	-2.41865e-74
0.4662 	-1.71594e-75
0.4669 	-1.00688e-76
0.4676 	-9.17925e-77
0.4683 	-8.9527e-77
0.469 	-5.48564e-75
0.4697 	-2.05987e-74
0.4704 	-1.84359e-74
0.4711 	-3.31613e-75
0.4718 	-6.9449e-77
0.4725 	-6.15336e-77
0.4732 	-5.98491e-77
0.4739 	-2.13405e-75
0.4746 	-1.18197e-74
0.4753 	-1.32013e-74
0.476 	-3.51086e-75
0.4767 	-4.59335e-77
0.4774 	-3.96378e-77
0.4781 	-3.82321e-77
0.4788 	-4.60316e-76
0.4795 	-6.38458e-75
0.4802 	-8.92263e-75
0.4809 	-2.9951e-75
0.4816 	-2.91713e-77
0.4823 	-2.48268e-77
0.483 	-2.33762e-77
0.4837 	-2.26001e-77
0.4844 	-3.23909e-75
0.4851 	-5.71305e-75
0.4858 	-2.24699e-75
0.4865 	-1.78086e-77
0.4872 	-1.49709e-77
0.4879 	-1.37014e-77
0.4886 	-1.32154e-77
0.4893 	-1.53644e-75
0.49 	-3.47521e-75
0.4907 	-1.53516e-75
0.4914 	-1.04619e-77
0.4921 	-8.70011e-78
0.4928 	-7.70775e-78
0.4935 	-7.41801e-78
0.4942 	-6.75672e-76
0.4949 	-1.71533e-75
0.4956 	-9.72082e-76
0.4963 	-5.91938e-78
0.497 	-4.87651e-78
0.4977 	-4.16603e-78
0.4984 	-4.00121e-78
0.4991 	-2.71271e-76
0.4998 	-8.05974e-76
0.5005 	-5.76522e-76
0.5012 	-4.14077e-77
0.5019 	-2.63813e-78
0.5026 	-2.16547e-78
0.5033 	-2.07585e-78
0.504 	-9.63305e-77
0.5047 	-3.60403e-76
0.5054 	-3.22554e-76
0.5061 	-5.82629e-77
0.5068 	-1.37839e-78
0.5075 	-1.08345e-78
0.5082 	-1.0368e-78
0.5089 	-2.7865e-77
0.5096 	-1.53233e-76
0.5103 	-1.71095e-76
0.511 	-4.56163e-77
0.5117 	-6.95904e-79
0.5124 	-5.29929e-79
0.5131 	-4.98971e-79
0.5138 	-4.56869e-78
0.5145 	-6.1846e-77
0.5152 	-8.63779e-77
0.5159 	-2.90466e-77
0.5166 	-3.39657e-79
0.5173 	-2.56958e-79
0.518 	-2.31638e-79
0.5187 	-2.20462e-79
0.5194 	-2.36376e-77
0.5201 	-4.16477e-77
0.5208 	-1.64031e-77
0.5215 	-1.60321e-79
0.5222 	-1.20737e-79
0.5229 	-1.03809e-79
0.5236 	-9.86477e-80
0.5243 	-8.51905e-78
0.525 	-1.92373e-77
0.5257 	-8.50759e-78
0.5264 	-7.32069e-80
0.5271 	-5.49774e-80
0.5278 	-4.49404e-80
0.5285 	-4.26443e-80
0.5292 	-2.8728e-78
0.5299 	-7.27652e-78
0.5306 	-4.12673e-78
0.5313 	-3.23604e-80
0.532 	-2.42699e-80
0.5327 	-1.88101e-80
0.5334 	-1.78261e-80
0.5341 	-8.9316e-79
0.5348 	-2.6448e-78
0.5355 	-1.89261e-78
0.5362 	-1.38875e-79
0.5369 	-1.03906e-80
0.5376 	-7.61588e-81
0.5383 	-7.2093e-81
0.539 	-2.47963e-79
0.5397 	-9.22803e-79
0.5404 	-8.25915e-79
0.5411 	-1.50232e-79
0.5418 	-4.31584e-81
0.5425 	-2.98561e-81
0.5432 	-2.82347e-81
0.5439 	-5.66881e-80
0.5446 	-3.08649e-79
0.5453 	-3.44502e-79
0.546 	-9.2212e-80
0.5467 	-1.73974e-81
0.5474 	-1.1659e-81
0.5481 	-1.07182e-81
0.5488 	-7.53119e-81
0.5495 	-9.87731e-80
0.5502 	-1.37841e-79
0.5509 	-4.64747e-80
0.5516 	-6.80598e-82
0.5523 	-4.5873e-82
0.553 	-3.9455e-82
0.5537 	-3.71186e-82
0.5544 	-3.01716e-80
0.5551 	-5.30898e-80
0.5558 	-2.09497e-80
0.5565 	-2.58537e-82
0.5572 	-1.75478e-82
0.5579 	-1.40952e-82
0.5586 	-1.32505e-82
0.5593 	-8.75822e-81
0.56 	-1.97387e-80
0.5607 	-8.74209e-81
0.5614 	-9.54558e-83
0.5621 	-6.52863e-83
0.5628 	-4.89027e-83
0.5635 	-4.59459e-83
0.5642 	-2.39358e-81
0.5649 	-6.04709e-81
0.5656 	-3.4327e-81
0.5663 	-3.42568e-83
0.567 	-2.3628e-83
0.5677 	-1.64903e-83
0.5684 	-1.54857e-83
0.5691 	-6.06296e-82
0.5698 	-1.78892e-81
0.5705 	-1.28076e-81
0.5712 	-9.62944e-83
0.5719 	-8.31928e-84
0.5726 	-5.41071e-84
0.5733 	-5.07899e-84
0.574 	-1.38098e-82
0.5747 	-5.11148e-82
0.5754 	-4.57513e-82
0.5761 	-8.38652e-83
0.5768 	-2.85132e-84
0.5775 	-1.72879e-84
0.5782 	-1.62228e-84
0.5789 	-2.61441e-83
0.5796 	-1.40969e-82
0.5803 	-1.57292e-82
0.581 	-4.22784e-83
0.5817 	-9.52027e-85
0.5824 	-5.62659e-85
0.5831 	-5.04949e-85
0.5838 	-2.938e-84
0.5845 	-3.74322e-83
0.5852 	-5.2199e-83
0.5859 	-1.7647e-83
0.5866 	-3.09779e-85
0.5873 	-1.87272e-85
0.588 	-1.53286e-85
0.5887 	-1.43182e-85
0.5894 	-9.53625e-84
0.5901 	-1.67598e-83
0.5908 	-6.62614e-84
0.5915 	-9.82599e-86
0.5922 	-6.07272e-86
0.5929 	-4.54288e-86
0.5936 	-4.24332e-86
0.5943 	-2.32047e-84
0.595 	-5.22061e-84
0.5957 	-2.31544e-84
0.5964 	-3.04073e-86
0.5971 	-1.91921e-86
0.5978 	-1.31517e-86
0.5985 	-1.22851e-86
0.5992 	-5.34891e-85
0.5999 	-1.34831e-84
0.6006 	-7.6607e-85
0.6013 	-9.1874e-87
0.602 	-5.91494e-87
0.6027 	-3.72144e-87
0.6034 	-3.47676e-87
0.6041 	-1.15004e-85
0.6048 	-3.38302e-85
0.6055 	-2.42319e-85
0.6062 	-1.86232e-86
0.6069 	-1.77885e-87
0.6076 	-1.03009e-87
0.6083 	-9.62603e-88
0.609 	-2.23579e-86
0.6097 	-8.23861e-86
0.6104 	-7.37489e-86
0.6111 	-1.36128e-86
0.6118 	-5.22321e-88
0.6125 	-2.79116e-88
0.6132 	-2.60907e-88
0.6139 	-3.63538e-87
0.6146 	-1.94496e-86
0.6153 	-2.16965e-86
0.616 	-5.85357e-87
0.6167 	-1.49848e-88
0.6174 	-7.90031e-89
0.6181 	-6.92686e-89
0.6188 	-3.56613e-88
0.6195 	-4.44188e-87
0.6202 	-6.19058e-87
0.6209 	-2.09785e-87
0.6216 	-4.20296e-89
0.6223 	-2.31188e-89
0.623 	-1.80207e-89
0.6237 	-1.67781e-89
0.6244 	-9.77905e-88
0.6251 	-1.71703e-87
0.6258 	-6.79974e-88
0.6265 	-1.15305e-89
0.6272 	-6.58569e-90
0.6279 	-4.59589e-90
0.6286 	-4.28125e-90
0.6293 	-2.06416e-88
0.63 	-4.63764e-88
0.6307 	-2.05942e-88
0.6314 	-3.09565e-90
0.6321 	-1.82859e-90
0.6328 	-1.14967e-90
0.6335 	-1.0716e-90
0.6342 	-4.1415e-89
0.6349 	-1.04215e-88
0.6356 	-5.92583e-89
0.6363 	-8.13834e-91
0.637 	-4.95508e-91
0.6377 	-2.82286e-91
0.6384 	-2.63288e-91
0.6391 	-7.77933e-90
0.6398 	-2.28304e-89
0.6405 	-1.636e-89
0.6412 	-1.28112e-90
0.6419 	-1.3119e-91
0.6426 	-6.80722e-92
0.6433 	-6.35345e-92
0.644 	-1.32648e-90
0.6447 	-4.87088e-90
0.6454 	-4.36078e-90
0.6461 	-8.09814e-91
0.6468 	-3.39713e-92
0.6475 	-1.61317e-92
0.6482 	-1.50671e-92
0.6489 	-1.90069e-91
0.6496 	-1.01065e-90
0.6503 	-1.12722e-90
0.651 	-3.05122e-91
0.6517 	-8.61206e-93
0.6524 	-4.09719e-93
0.6531 	-3.51331e-93
0.6538 	-1.6632e-92
0.6545 	-2.03484e-91
0.6552 	-2.83464e-91
0.6559 	-9.62659e-92
0.6566 	-2.13918e-93
0.6573 	-1.08398e-93
0.658 	-8.05767e-94
0.6587 	-7.50124e-94
0.6594 	-3.96184e-92
0.6601 	-6.9509e-92
0.6608 	-2.7569e-92
0.6615 	-5.20983e-94
0.6622 	-2.78431e-94
0.6629 	-1.81783e-94
0.6636 	-1.69377e-94
0.6643 	-7.41776e-93
0.665 	-1.66464e-92
0.6657 	-7.40067e-93
0.6664 	-1.24457e-94
0.6671 	-6.96128e-95
0.6678 	-4.03426e-95
0.6685 	-3.76227e-95
0.6692 	-1.32353e-93
0.6699 	-3.32533e-93
0.6706 	-1.8923e-93
0.6713 	-2.9172e-95
0.672 	-1.69729e-95
0.6727 	-8.80736e-96
0.6734 	-8.22083e-96
0.6741 	-2.21533e-94
0.6748 	-6.48745e-94
0.6755 	-4.65091e-94
0.6762 	-3.70915e-95
0.6769 	-4.04124e-96
0.6776 	-1.89128e-96
0.6783 	-1.76686e-96
0.679 	-3.37156e-95
0.6797 	-1.23396e-94
0.6804 	-1.1049e-94
0.6811 	-2.06446e-95
0.6818 	-9.40473e-97
0.6825 	-3.99297e-97
0.6832 	-3.73335e-97
0.6839 	-4.31862e-96
0.6846 	-2.28251e-95
0.6853 	-2.54543e-95
0.686 	-6.91377e-96
0.6867 	-2.13921e-97
0.6874 	-9.224e-98
0.6881 	-7.73426e-98
0.6888 	-3.39696e-97
0.6895 	-4.08193e-96
0.6902 	-5.68378e-96
0.6909 	-1.93463e-96
0.6916 	-4.7329e-98
0.6923 	-2.18858e-98
0.693 	-1.53165e-98
0.6937 	-1.42361e-98
0.6944 	-6.8205e-97
0.6951 	-1.19561e-96
0.6958 	-4.74945e-97
0.6965 	-9.81706e-99
0.6972 	-4.66039e-99
0.6979 	-2.62762e-99
0.6986 	-2.416e-99
0.6993 	-2.18796e-99
0.7 	-1.95545e-99
