0 	1
0.0007 	1
0.0014 	1
0.0021 	1
0.0028 	1
0.0035 	1
0.0042 	1
0.0049 	1
0.0056 	1
0.0063 	1
0.007 	1
0.0077 	1
0.0084 	1
0.0091 	1
0.0098 	1
0.0105 	1
0.0112 	1
0.0119 	1
0.0126 	1
0.0133 	1
0.014 	1
0.0147 	1
0.0154 	1
0.0161 	1
0.0168 	1
0.0175 	1
0.0182 	1
0.0189 	1
0.0196 	1
0.0203 	1
0.021 	1
0.0217 	1
0.0224 	1
0.0231 	1
0.0238 	1
0.0245 	1
0.0252 	1
0.0259 	1
0.0266 	1
0.0273 	1
0.028 	1
0.0287 	1
0.0294 	1
0.0301 	1
0.0308 	1
0.0315 	1
0.0322 	1
0.0329 	1
0.0336 	1
0.0343 	1
0.035 	1
0.0357 	1
0.0364 	1
0.0371 	1
0.0378 	1
0.0385 	1
0.0392 	1
0.0399 	1
0.0406 	1
0.0413 	1
0.042 	1
0.0427 	1
0.0434 	1
0.0441 	1
0.0448 	1
0.0455 	1
0.0462 	1
0.0469 	1
0.0476 	1
0.0483 	1
0.049 	1
0.0497 	1
0.0504 	1
0.0511 	1
0.0518 	1
0.0525 	1
0.0532 	1
0.0539 	1
0.0546 	1
0.0553 	1
0.056 	1
0.0567 	1
0.0574 	1
0.0581 	1
0.0588 	1
0.0595 	1
0.0602 	1
0.0609 	1
0.0616 	1
0.0623 	1
0.063 	1
0.0637 	1
0.0644 	1
0.0651 	1
0.0658 	1
0.0665 	1
0.0672 	1
0.0679 	1
0.0686 	1
0.0693 	1
0.07 	1
0.0707 	1
0.0714 	1
0.0721 	1
0.0728 	1
0.0735 	1
0.0742 	1
0.0749 	1
0.0756 	1
0.0763 	1
0.077 	1
0.0777 	1
0.0784 	1
0.0791 	1
0.0798 	1
0.0805 	1
0.0812 	1
0.0819 	1
0.0826 	1
0.0833 	1
0.084 	1
0.0847 	1
0.0854 	1
0.0861 	1
0.0868 	1
0.0875 	1
0.0882 	1
0.0889 	1
0.0896 	1
0.0903 	1
0.091 	1
0.0917 	1
0.0924 	1
0.0931 	1
0.0938 	1
0.0945 	1
0.0952 	1
0.0959 	1
0.0966 	1
0.0973 	1
0.098 	1
0.0987 	1
0.0994 	1
0.1001 	1
0.1008 	1
0.1015 	1
0.1022 	1
0.1029 	1
0.1036 	1
0.1043 	1
0.105 	1
0.1057 	1
0.1064 	1
0.1071 	1
0.1078 	1
0.1085 	1
0.1092 	1
0.1099 	1
0.1106 	1
0.1113 	1
0.112 	1
0.1127 	1
0.1134 	1
0.1141 	1
0.1148 	1
0.1155 	1
0.1162 	1
0.1169 	1
0.1176 	1
0.1183 	1
0.119 	1
0.1197 	1
0.1204 	1
0.1211 	1
0.1218 	1
0.1225 	1
0.1232 	1
0.1239 	1
0.1246 	1
0.1253 	1
0.126 	1
0.1267 	1
0.1274 	1
0.1281 	1
0.1288 	1
0.1295 	1
0.1302 	1
0.1309 	1
0.1316 	1
0.1323 	1
0.133 	1
0.1337 	1
0.1344 	1
0.1351 	1
0.1358 	1
0.1365 	1
0.1372 	1
0.1379 	1
0.1386 	1
0.1393 	1
0.14 	1
0.1407 	1
0.1414 	1
0.1421 	1
0.1428 	1
0.1435 	1
0.1442 	1
0.1449 	1
0.1456 	1
0.1463 	1
0.147 	1
0.1477 	1
0.1484 	1
0.1491 	1
0.1498 	1
0.1505 	1
0.1512 	1
0.1519 	1
0.1526 	1
0.1533 	1
0.154 	1
0.1547 	1
0.1554 	1
0.1561 	1
0.1568 	1
0.1575 	1
0.1582 	1
0.1589 	1
0.1596 	1
0.1603 	1
0.161 	1
0.1617 	1
0.1624 	1
0.1631 	1
0.1638 	1
0.1645 	1
0.1652 	1
0.1659 	1
0.1666 	1
0.1673 	1
0.168 	1
0.1687 	1
0.1694 	1
0.1701 	1
0.1708 	1
0.1715 	1
0.1722 	1
0.1729 	1
0.1736 	1
0.1743 	1
0.175 	1
0.1757 	1
0.1764 	1
0.1771 	1
0.1778 	1
0.1785 	1
0.1792 	1
0.1799 	1
0.1806 	1
0.1813 	1
0.182 	1
0.1827 	1
0.1834 	1
0.1841 	1
0.1848 	1
0.1855 	1
0.1862 	1
0.1869 	1
0.1876 	1
0.1883 	1
0.189 	1
0.1897 	1
0.1904 	1
0.1911 	1
0.1918 	1
0.1925 	1
0.1932 	1
0.1939 	1
0.1946 	1
0.1953 	1
0.196 	1
0.1967 	1
0.1974 	1
0.1981 	1
0.1988 	1
0.1995 	1
0.2002 	1
0.2009 	1
0.2016 	1
0.2023 	1
0.203 	1
0.2037 	1
0.2044 	1
0.2051 	1
0.2058 	1
0.2065 	1
0.2072 	1
0.2079 	1
0.2086 	1
0.2093 	1
0.21 	1
0.2107 	1
0.2114 	1
0.2121 	1
0.2128 	1
0.2135 	1
0.2142 	1
0.2149 	0.999999
0.2156 	0.999999
0.2163 	0.999998
0.217 	0.999988
0.2177 	0.999982
0.2184 	0.999975
0.2191 	0.999961
0.2198 	0.999939
0.2205 	0.999923
0.2212 	0.999909
0.2219 	0.999649
0.2226 	0.999526
0.2233 	0.999402
0.224 	0.999126
0.2247 	0.998573
0.2254 	0.998235
0.2261 	0.998057
0.2268 	0.993327
0.2275 	0.990778
0.2282 	0.988229
0.2289 	0.983901
0.2296 	0.973048
0.2303 	0.964851
0.231 	0.960193
0.2317 	0.931004
0.2324 	0.900376
0.2331 	0.869747
0.2338 	0.836028
0.2345 	0.762132
0.2352 	0.688921
0.2359 	0.617419
0.2366 	0.551816
0.2373 	0.490689
0.238 	0.429563
0.2387 	0.368436
0.2394 	0.318402
0.2401 	0.268153
0.2408 	0.211489
0.2415 	0.167352
0.2422 	0.130021
0.2429 	0.0910285
0.2436 	0.0520355
0.2443 	0.0406013
0.245 	0.0366832
0.2457 	0.028418
0.2464 	0.021507
0.2471 	0.0162326
0.2478 	0.00991727
0.2485 	0.00360193
0.2492 	0.00134877
0.2499 	0.00135241
0.2506 	0.00109775
0.2513 	0.000818234
0.252 	0.000644678
0.2527 	0.000390768
0.2534 	0.000136858
0.2541 	1.03161e-05
0.2548 	1.11448e-05
0.2555 	9.62037e-06
0.2562 	7.15469e-06
0.2569 	5.80998e-06
0.2576 	3.62483e-06
0.2583 	1.43969e-06
0.259 	3.433e-08
0.2597 	3.26045e-08
0.2604 	2.72191e-08
0.2611 	1.90887e-08
0.2618 	1.41678e-08
0.2625 	9.39854e-09
0.2632 	4.62928e-09
0.2639 	8.49983e-10
0.2646 	7.00608e-10
0.2653 	5.43555e-10
0.266 	3.76264e-10
0.2667 	2.53164e-10
0.2674 	1.89505e-10
0.2681 	1.25846e-10
0.2688 	6.6044e-11
0.2695 	5.63784e-11
0.2702 	4.68496e-11
0.2709 	3.76626e-11
0.2716 	3.03374e-11
0.2723 	2.51666e-11
0.273 	1.99958e-11
0.2737 	1.4825e-11
0.2744 	1.30793e-11
0.2751 	1.15586e-11
0.2758 	9.80659e-12
0.2765 	8.34658e-12
0.2772 	7.15427e-12
0.2779 	5.93512e-12
0.2786 	4.71596e-12
0.2793 	4.13822e-12
0.28 	3.7354e-12
0.2807 	3.24888e-12
0.2814 	2.8105e-12
0.2821 	2.46997e-12
0.2828 	2.10502e-12
0.2835 	1.74007e-12
0.2842 	1.51928e-12
0.2849 	1.37858e-12
0.2856 	1.21853e-12
0.2863 	1.06048e-12
0.287 	9.47363e-13
0.2877 	8.20255e-13
0.2884 	6.93147e-13
0.2891 	6.02477e-13
0.2898 	5.48246e-13
0.2905 	4.8637e-13
0.2912 	4.21436e-13
0.2919 	3.7639e-13
0.2926 	3.24888e-13
0.2933 	2.73387e-13
0.294 	2.32541e-13
0.2947 	2.10876e-13
0.2954 	1.85778e-13
0.2961 	1.58105e-13
0.2968 	1.38766e-13
0.2975 	1.1705e-13
0.2982 	9.53346e-14
0.2989 	7.663e-14
0.2996 	6.89667e-14
0.3003 	6.00683e-14
0.301 	4.95229e-14
0.3017 	4.22236e-14
0.3024 	3.4204e-14
0.3031 	2.61845e-14
0.3038 	1.86023e-14
0.3045 	1.67068e-14
0.3052 	1.45184e-14
0.3059 	1.15979e-14
0.3066 	9.57483e-15
0.3073 	7.39521e-15
0.308 	5.21558e-15
0.3087 	3.03596e-15
0.3094 	2.6309e-15
0.3101 	2.32958e-15
0.3108 	1.83164e-15
0.3115 	1.46018e-15
0.3122 	1.10556e-15
0.3129 	7.29352e-16
0.3136 	3.53143e-16
0.3143 	2.55189e-16
0.315 	2.33124e-16
0.3157 	1.83461e-16
0.3164 	1.41668e-16
0.3171 	1.09315e-16
0.3178 	7.09789e-17
0.3185 	3.2643e-17
0.3192 	1.79196e-17
0.3199 	1.63145e-17
0.3206 	1.31434e-17
0.3213 	9.88988e-18
0.322 	7.90035e-18
0.3227 	5.26729e-18
0.3234 	2.63424e-18
0.3241 	1.25197e-18
0.3248 	1.12052e-18
0.3255 	9.16248e-19
0.3262 	6.82851e-19
0.3269 	5.52018e-19
0.3276 	3.77456e-19
0.3283 	2.02895e-19
0.329 	8.74792e-20
0.3297 	7.85281e-20
0.3304 	6.5282e-20
0.3311 	4.88145e-20
0.3318 	3.91205e-20
0.3325 	2.67599e-20
0.3332 	1.43993e-20
0.3339 	4.61308e-21
0.3346 	4.26614e-21
0.3353 	3.67943e-21
0.336 	2.77303e-21
0.3367 	2.22062e-21
0.3374 	1.51186e-21
0.3381 	8.03092e-22
0.3388 	1.44596e-22
0.3395 	1.39636e-22
0.3402 	1.27486e-22
0.3409 	9.73603e-23
0.3416 	7.86217e-23
0.3423 	5.38323e-23
0.343 	2.90428e-23
0.3437 	4.2534e-24
0.3444 	2.48395e-24
0.3451 	2.40734e-24
0.3458 	1.86252e-24
0.3465 	1.4837e-24
0.3472 	1.05416e-24
0.3479 	5.89488e-25
0.3486 	1.24816e-25
0.3493 	2.57428e-26
0.35 	2.63812e-26
0.3507 	2.06424e-26
0.3514 	1.59782e-26
0.3521 	1.19706e-26
0.3528 	6.96027e-27
0.3535 	1.94988e-27
0.3542 	1.6755e-28
0.3549 	1.78602e-28
0.3556 	1.47056e-28
0.3563 	1.10905e-28
0.357 	8.77543e-29
0.3577 	5.28728e-29
0.3584 	1.79914e-29
0.3591 	5.91538e-31
0.3598 	6.7359e-31
0.3605 	5.92471e-31
0.3612 	4.46082e-31
0.3619 	3.65536e-31
0.3626 	2.27516e-31
0.3633 	8.94962e-32
0.364 	8.33578e-34
0.3647 	1.01481e-33
0.3654 	9.63637e-34
0.3661 	7.38154e-34
0.3668 	6.12955e-34
0.3675 	3.93032e-34
0.3682 	1.7311e-34
0.3689 	3.32476e-37
0.3696 	4.22937e-37
0.3703 	4.33012e-37
0.371 	3.35904e-37
0.3717 	2.82016e-37
0.3724 	1.8573e-37
0.3731 	8.94449e-38
0.3738 	3.73721e-41
0.3745 	4.81265e-41
0.3752 	5.25484e-41
0.3759 	4.11391e-41
0.3766 	3.47975e-41
0.3773 	2.34694e-41
0.378 	1.21413e-41
0.3787 	8.13126e-43
0.3794 	5.01432e-45
0.3801 	5.83539e-45
0.3808 	4.60692e-45
0.3815 	3.81425e-45
0.3822 	2.70255e-45
0.3829 	1.48223e-45
0.3836 	2.61917e-46
0.3843 	5.13304e-49
0.385 	6.36949e-49
0.3857 	5.06811e-49
0.3864 	4.04387e-49
0.3871 	3.049e-49
0.3878 	1.75567e-49
0.3885 	4.6234e-50
0.3892 	5.1667e-53
0.3899 	6.46225e-53
0.3906 	5.48359e-53
0.3913 	4.22233e-53
0.392 	3.37543e-53
0.3927 	2.02544e-53
0.3934 	6.75444e-54
0.3941 	5.08572e-57
0.3948 	6.41579e-57
0.3955 	5.80471e-57
0.3962 	4.41716e-57
0.3969 	3.6487e-57
0.3976 	2.26828e-57
0.3983 	8.87856e-58
0.399 	4.85487e-61
0.3997 	6.18137e-61
0.4004 	5.96261e-61
0.4011 	4.58491e-61
0.4018 	3.82062e-61
0.4025 	2.44927e-61
0.4032 	1.07791e-61
0.4039 	4.4666e-65
0.4046 	5.74361e-65
0.4053 	5.90726e-65
0.406 	4.58643e-65
0.4067 	3.85264e-65
0.4074 	2.53724e-65
0.4081 	1.22183e-65
0.4088 	3.94753e-69
0.4095 	5.13037e-69
0.4102 	5.62702e-69
0.4109 	4.40817e-69
0.4116 	3.73023e-69
0.4123 	2.51585e-69
0.413 	1.30147e-69
0.4137 	8.70876e-71
0.4144 	4.40058e-73
0.4151 	5.14865e-73
0.4158 	4.06719e-73
0.4165 	3.37071e-73
0.4172 	2.38713e-73
0.4179 	1.3092e-73
0.4186 	2.31279e-74
0.4193 	3.62629e-77
0.42 	4.52759e-77
0.4207 	3.60455e-77
0.4214 	2.87872e-77
0.4221 	2.16976e-77
0.4228 	1.24936e-77
0.4235 	3.28952e-78
0.4242 	7.92041e-82
0.4249 	-1.61573e-81
0.4256 	7.4568e-83
0.4263 	2.27689e-81
0.427 	1.76887e-81
0.4277 	9.70825e-82
0.4284 	1.72777e-82
0.4291 	-5.42491e-81
0.4298 	-1.58223e-80
0.4305 	-1.14337e-80
0.4312 	-1.1307e-81
0.4319 	-4.69598e-82
0.4326 	-5.9765e-82
0.4333 	-7.25702e-82
0.434 	-7.04788e-81
0.4347 	-2.45196e-80
0.4354 	-2.20797e-80
0.4361 	-4.70597e-81
0.4368 	-1.03344e-81
0.4375 	-1.15683e-81
0.4382 	-1.28022e-81
0.4389 	-5.65416e-81
0.4396 	-2.56138e-80
0.4403 	-2.84807e-80
0.441 	-8.55739e-81
0.4417 	-1.45041e-81
0.4424 	-1.49552e-81
0.4431 	-1.54063e-81
0.4438 	-2.82427e-81
0.4445 	-2.02095e-80
0.4452 	-2.7651e-80
0.4459 	-1.02334e-80
0.4466 	-1.51533e-81
0.4473 	-1.47344e-81
0.448 	-1.43155e-81
0.4487 	-1.38966e-81
0.4494 	-1.27845e-80
0.4501 	-2.15426e-80
0.4508 	-9.20238e-81
0.4515 	-1.26254e-81
0.4522 	-1.18068e-81
0.4529 	-1.09293e-81
0.4536 	-1.00517e-81
0.4543 	-6.72017e-81
0.455 	-1.40178e-80
0.4557 	-6.65726e-81
0.4564 	-8.70717e-82
0.4571 	-7.99258e-82
0.4578 	-7.11212e-82
0.4585 	-6.23165e-82
0.4592 	-3.00215e-81
0.4599 	-6.75171e-81
0.4606 	-4.03591e-81
0.4613 	-5.12817e-82
0.462 	-4.68599e-82
0.4627 	-4.04031e-82
0.4634 	-3.39463e-82
0.4641 	-1.15549e-81
0.4648 	-2.85214e-81
0.4655 	-2.10738e-81
0.4662 	-3.8607e-82
0.4669 	-2.4217e-82
0.4676 	-2.03731e-82
0.4683 	-1.65292e-82
0.469 	-3.85507e-82
0.4697 	-1.07131e-81
0.4704 	-9.66591e-82
0.4711 	-2.68984e-82
0.4718 	-1.11779e-82
0.4725 	-9.23009e-83
0.4732 	-7.28227e-83
0.4739 	-1.11177e-82
0.4746 	-3.61586e-82
0.4753 	-3.95243e-82
0.476 	-1.39898e-82
0.4767 	-4.65567e-83
0.4774 	-3.79226e-83
0.4781 	-2.92884e-83
0.4788 	-2.72233e-83
0.4795 	-1.1056e-82
0.4802 	-1.45751e-82
0.4809 	-6.0577e-83
0.4816 	-1.76434e-83
0.4823 	-1.42343e-83
0.483 	-1.08252e-83
0.4837 	-7.41606e-84
0.4844 	-3.08183e-83
0.4851 	-4.89193e-83
0.4858 	-2.28378e-83
0.4865 	-6.03239e-84
0.4872 	-4.91068e-84
0.4879 	-3.69606e-84
0.4886 	-2.48144e-84
0.4893 	-7.8689e-84
0.49 	-1.5057e-83
0.4907 	-7.68027e-84
0.4914 	-1.87737e-84
0.4921 	-1.56503e-84
0.4928 	-1.17067e-84
0.4935 	-7.76316e-85
0.4942 	-1.84664e-84
0.4949 	-3.73068e-84
0.4956 	-2.33953e-84
0.4963 	-5.40228e-85
0.497 	-4.62768e-85
0.4977 	-3.45186e-85
0.4984 	-2.27604e-85
0.4991 	-3.9909e-85
0.4998 	-8.59648e-85
0.5005 	-6.52444e-85
0.5012 	-1.78135e-85
0.5019 	-1.27441e-85
0.5026 	-9.50431e-86
0.5033 	-6.26448e-86
0.504 	-7.9459e-86
0.5047 	-1.84857e-85
0.5054 	-1.67906e-85
0.5061 	-5.91925e-86
0.5068 	-3.27947e-86
0.5075 	-2.45025e-86
0.5082 	-1.62102e-86
0.5089 	-1.45493e-86
0.5096 	-3.72037e-86
0.5103 	-4.01204e-86
0.511 	-1.67204e-86
0.5117 	-7.90896e-87
0.5124 	-5.92892e-87
0.5131 	-3.94888e-87
0.5138 	-2.43785e-87
0.5145 	-7.02432e-87
0.5152 	-8.94508e-87
0.5159 	-4.20156e-87
0.5166 	-1.7922e-87
0.5173 	-1.34949e-87
0.518 	-9.06774e-88
0.5187 	-4.64061e-88
0.5194 	-1.24657e-87
0.5201 	-1.8684e-87
0.5208 	-9.60565e-88
0.5215 	-3.75241e-88
0.5222 	-2.89503e-88
0.5229 	-1.96526e-88
0.5236 	-1.03548e-88
0.5243 	-2.08237e-88
0.525 	-3.66836e-88
0.5257 	-2.0245e-88
0.5264 	-7.30995e-89
0.5271 	-5.86418e-89
0.5278 	-4.02507e-89
0.5285 	-2.18596e-89
0.5292 	-3.27757e-89
0.5299 	-5.99738e-89
0.5306 	-3.96744e-89
0.5313 	-1.34633e-89
0.532 	-1.12339e-89
0.5327 	-7.79982e-90
0.5334 	-4.36573e-90
0.5341 	-4.8631e-90
0.5348 	-9.29197e-90
0.5355 	-7.27304e-90
0.5362 	-2.67499e-90
0.5369 	-2.03819e-90
0.5376 	-1.43167e-90
0.5383 	-8.25153e-91
0.539 	-6.80147e-91
0.5397 	-1.36588e-90
0.5404 	-1.25269e-90
0.5411 	-5.40321e-91
0.5418 	-3.50668e-91
0.5425 	-2.49175e-91
0.5432 	-1.47682e-91
0.5439 	-8.95937e-92
0.5446 	-1.90662e-91
0.5453 	-2.03395e-91
0.546 	-9.83483e-92
0.5467 	-5.72735e-92
0.5474 	-4.11597e-92
0.5481 	-2.50458e-92
0.5488 	-1.10966e-92
0.5495 	-2.52895e-92
0.5502 	-3.12111e-92
0.5509 	-1.6454e-92
0.5516 	-8.88814e-93
0.5523 	-6.45798e-93
0.553 	-4.02783e-93
0.5537 	-1.59767e-93
0.5544 	-3.18865e-93
0.5551 	-4.53516e-93
0.5558 	-2.55886e-93
0.5565 	-1.28445e-93
0.5572 	-9.63098e-94
0.5579 	-6.14644e-94
0.5586 	-2.66189e-94
0.5593 	-3.82218e-94
0.56 	-6.24927e-94
0.5607 	-3.72487e-94
0.5614 	-1.73842e-94
0.5621 	-1.36589e-94
0.5628 	-8.90515e-95
0.5635 	-4.15136e-95
0.5642 	-4.35498e-95
0.5649 	-7.31276e-95
0.5656 	-5.09848e-95
0.5663 	-2.24072e-95
0.567 	-1.84285e-95
0.5677 	-1.2255e-95
0.5684 	-6.08156e-96
0.5691 	-4.7145e-96
0.5698 	-8.15389e-96
0.5705 	-6.58182e-96
0.5712 	-3.00516e-96
0.5719 	-2.36574e-96
0.5726 	-1.60238e-96
0.5733 	-8.39014e-97
0.574 	-4.84543e-97
0.5747 	-8.66088e-97
0.5754 	-8.02943e-97
0.5761 	-4.0628e-97
0.5768 	-2.88964e-97
0.5775 	-1.99083e-97
0.5782 	-1.09202e-97
0.5789 	-4.72289e-98
0.5796 	-8.759e-98
0.5803 	-9.26777e-98
0.581 	-5.07341e-98
0.5817 	-3.35762e-98
0.5824 	-2.35006e-98
0.5831 	-1.3425e-98
0.5838 	-4.35956e-99
0.5845 	-8.4279e-99
0.5852 	-1.01265e-98
0.5859 	-5.90085e-99
0.5866 	-3.70974e-99
0.5873 	-2.63487e-99
0.588 	-1.56001e-99
0.5887 	-4.85139e-100
0.5894 	-7.70918e-100
0.5901 	-1.04769e-99
0.5908 	-6.42405e-100
0.5915 	-3.81134e-100
0.5922 	-2.80509e-100
0.5929 	-1.71466e-100
0.5936 	-6.24238e-101
0.5943 	-6.71359e-101
0.595 	-1.02873e-100
0.5957 	-6.58076e-101
0.5964 	-3.66461e-101
0.5971 	-2.84066e-101
0.5978 	-1.78772e-101
0.5985 	-7.34775e-102
0.5992 	-5.60639e-102
0.5999 	-8.74735e-102
0.6006 	-6.40647e-102
0.6013 	-3.3833e-102
0.602 	-2.75717e-102
0.6027 	-1.78163e-102
0.6034 	-8.06088e-103
0.6041 	-4.51931e-103
0.6048 	-7.19162e-103
0.6055 	-5.97934e-103
0.6062 	-3.21322e-103
0.6069 	-2.5794e-103
0.6076 	-1.70649e-103
0.6083 	-8.33579e-104
0.609 	-3.50808e-104
0.6097 	-5.70304e-104
0.6104 	-5.34689e-104
0.6111 	-3.07741e-104
0.6118 	-2.32269e-104
0.6125 	-1.56994e-104
0.6132 	-8.17199e-105
0.6139 	-2.6322e-105
0.6146 	-4.38065e-105
0.6153 	-4.60589e-105
0.616 	-2.80017e-105
0.6167 	-2.0212e-105
0.6174 	-1.393e-105
0.6181 	-7.64798e-106
0.6188 	-1.9113e-106
0.6195 	-3.2644e-106
0.6202 	-3.8321e-106
0.6209 	-2.43634e-106
0.6216 	-1.70272e-106
0.6223 	-1.19445e-106
0.623 	-6.8617e-107
0.6237 	-1.77893e-107
0.6244 	-2.36094e-107
0.6251 	-3.08351e-107
0.6258 	-2.0349e-107
0.6265 	-1.35931e-107
0.6272 	-9.90856e-108
0.6279 	-5.91886e-108
0.6286 	-1.92916e-108
0.6293 	-1.65979e-108
0.63 	-2.40506e-108
0.6307 	-1.63813e-108
0.6314 	-1.03492e-108
0.6321 	-7.96875e-109
0.6328 	-4.92517e-109
0.6335 	-1.88158e-109
0.6342 	-1.13701e-109
0.6349 	-1.66967e-109
0.6356 	-1.2765e-109
0.6363 	-7.67974e-110
0.637 	-6.23056e-110
0.6377 	-3.96798e-110
0.6384 	-1.7054e-110
0.6391 	-7.60263e-111
0.6398 	-1.13257e-110
0.6405 	-9.65938e-111
0.6412 	-5.83725e-111
0.6419 	-4.74611e-111
0.6426 	-3.10365e-111
0.6433 	-1.46119e-111
0.644 	-4.96221e-112
0.6447 	-7.50738e-112
0.6454 	-7.10682e-112
0.6461 	-4.49696e-112
0.6468 	-3.52406e-112
0.6475 	-2.35929e-112
0.6482 	-1.19451e-112
0.6489 	-3.1575e-113
0.6496 	-4.85707e-113
0.6503 	-5.08219e-113
0.651 	-3.34136e-113
0.6517 	-2.54861e-113
0.6524 	-1.74244e-113
0.6531 	-9.36259e-114
0.6538 	-1.95571e-114
0.6545 	-3.0626e-114
0.6552 	-3.52966e-114
0.6559 	-2.39713e-114
0.6566 	-1.79324e-114
0.6573 	-1.24938e-114
0.658 	-7.05519e-115
0.6587 	-1.6166e-115
0.6594 	-1.8804e-115
0.6601 	-2.37994e-115
0.6608 	-1.66197e-115
0.6615 	-1.19968e-115
0.6622 	-8.69465e-116
0.6629 	-5.12154e-116
0.6636 	-1.54843e-116
0.6643 	-1.12403e-116
0.665 	-1.55838e-116
0.6657 	-1.1149e-116
0.6664 	-7.66197e-117
0.6671 	-5.8741e-117
0.6678 	-3.58826e-117
0.6685 	-1.30242e-117
0.6692 	-6.54326e-118
0.6699 	-9.16095e-118
0.6706 	-7.24636e-118
0.6713 	-4.76661e-118
0.672 	-3.85503e-118
0.6727 	-2.43069e-118
0.6734 	-1.00634e-118
0.6741 	-3.71083e-119
0.6748 	-5.24926e-119
0.6755 	-4.5691e-119
0.6762 	-3.00152e-119
0.6769 	-2.45935e-119
0.6776 	-1.59448e-119
0.6783 	-7.29597e-120
0.679 	-2.05106e-120
0.6797 	-2.9332e-120
0.6804 	-2.79813e-120
0.6811 	-1.90014e-120
0.6818 	-1.52623e-120
0.6825 	-1.01423e-120
0.6832 	-5.02237e-121
0.6839 	-1.10533e-121
0.6846 	-1.59912e-121
0.6853 	-1.66607e-121
0.686 	-1.16389e-121
0.6867 	-9.21997e-122
0.6874 	-6.26352e-122
0.6881 	-3.30706e-122
0.6888 	-5.81058e-123
0.6895 	-8.51078e-123
0.6902 	-9.65563e-123
0.6909 	-6.91211e-123
0.6916 	-5.42605e-123
0.6923 	-3.75985e-123
0.693 	-2.09365e-123
0.6937 	-4.27446e-124
0.6944 	-4.42473e-124
0.6951 	-5.45273e-124
0.6958 	-3.98733e-124
0.6965 	-3.04432e-124
0.6972 	-2.23971e-124
0.6979 	-1.36943e-124
0.6986 	-4.99156e-125
0.6993 	-4.26339e-125
0.7 	-5.71015e-125
