0 	1
0.0007 	1
0.0014 	1
0.0021 	1
0.0028 	1
0.0035 	1
0.0042 	1
0.0049 	1
0.0056 	1
0.0063 	1
0.007 	1
0.0077 	1
0.0084 	1
0.0091 	1
0.0098 	1
0.0105 	1
0.0112 	1
0.0119 	1
0.0126 	1
0.0133 	1
0.014 	1
0.0147 	1
0.0154 	1
0.0161 	1
0.0168 	1
0.0175 	1
0.0182 	1
0.0189 	1
0.0196 	1
0.0203 	1
0.021 	1
0.0217 	1
0.0224 	1
0.0231 	1
0.0238 	1
0.0245 	1
0.0252 	1
0.0259 	1
0.0266 	1
0.0273 	1
0.028 	1
0.0287 	1
0.0294 	1
0.0301 	1
0.0308 	1
0.0315 	1
0.0322 	1
0.0329 	1
0.0336 	1
0.0343 	1
0.035 	1
0.0357 	1
0.0364 	1
0.0371 	1
0.0378 	1
0.0385 	1
0.0392 	1
0.0399 	1
0.0406 	1
0.0413 	1
0.042 	1
0.0427 	1
0.0434 	1
0.0441 	1
0.0448 	1
0.0455 	1
0.0462 	1
0.0469 	1
0.0476 	1
0.0483 	1
0.049 	1
0.0497 	1
0.0504 	1
0.0511 	1
0.0518 	1
0.0525 	1
0.0532 	1
0.0539 	1
0.0546 	1
0.0553 	1
0.056 	1
0.0567 	1
0.0574 	1
0.0581 	1
0.0588 	1
0.0595 	1
0.0602 	1
0.0609 	1
0.0616 	1
0.0623 	1
0.063 	1
0.0637 	1
0.0644 	1
0.0651 	1
0.0658 	1
0.0665 	1
0.0672 	1
0.0679 	1
0.0686 	1
0.0693 	1
0.07 	1
0.0707 	1
0.0714 	1
0.0721 	1
0.0728 	1
0.0735 	1
0.0742 	1
0.0749 	1
0.0756 	1
0.0763 	1
0.077 	1
0.0777 	1
0.0784 	1
0.0791 	1
0.0798 	1
0.0805 	1
0.0812 	1
0.0819 	1
0.0826 	1
0.0833 	1
0.084 	1
0.0847 	1
0.0854 	1
0.0861 	1
0.0868 	1
0.0875 	1
0.0882 	1
0.0889 	1
0.0896 	1
0.0903 	1
0.091 	1
0.0917 	1
0.0924 	1
0.0931 	1
0.0938 	1
0.0945 	1
0.0952 	1
0.0959 	1
0.0966 	1
0.0973 	1
0.098 	1
0.0987 	1
0.0994 	1
0.1001 	1
0.1008 	1
0.1015 	1
0.1022 	1
0.1029 	1
0.1036 	1
0.1043 	1
0.105 	1
0.1057 	1
0.1064 	1
0.1071 	1
0.1078 	1
0.1085 	1
0.1092 	1
0.1099 	1
0.1106 	1
0.1113 	1
0.112 	1
0.1127 	1
0.1134 	1
0.1141 	1
0.1148 	1
0.1155 	1
0.1162 	1
0.1169 	1
0.1176 	1
0.1183 	1
0.119 	1
0.1197 	1
0.1204 	1
0.1211 	1
0.1218 	1
0.1225 	1
0.1232 	1
0.1239 	1
0.1246 	1
0.1253 	1
0.126 	1
0.1267 	1
0.1274 	1
0.1281 	1
0.1288 	1
0.1295 	1
0.1302 	1
0.1309 	1
0.1316 	1
0.1323 	1
0.133 	1
0.1337 	1
0.1344 	1
0.1351 	1
0.1358 	1
0.1365 	1
0.1372 	1
0.1379 	1
0.1386 	1
0.1393 	1
0.14 	1
0.1407 	1
0.1414 	1
0.1421 	1
0.1428 	1
0.1435 	1
0.1442 	1
0.1449 	1
0.1456 	1
0.1463 	1
0.147 	1
0.1477 	1
0.1484 	1
0.1491 	1
0.1498 	1
0.1505 	1
0.1512 	1
0.1519 	1
0.1526 	1
0.1533 	1
0.154 	1
0.1547 	1
0.1554 	1
0.1561 	1
0.1568 	1
0.1575 	1
0.1582 	1
0.1589 	1
0.1596 	1
0.1603 	1
0.161 	1
0.1617 	1
0.1624 	1
0.1631 	1
0.1638 	1
0.1645 	1
0.1652 	1
0.1659 	1
0.1666 	1
0.1673 	1
0.168 	1
0.1687 	1
0.1694 	1
0.1701 	1
0.1708 	1
0.1715 	1
0.1722 	1
0.1729 	1
0.1736 	1
0.1743 	1
0.175 	1
0.1757 	1
0.1764 	1
0.1771 	1
0.1778 	1
0.1785 	1
0.1792 	1
0.1799 	1
0.1806 	1
0.1813 	1
0.182 	1
0.1827 	1
0.1834 	1
0.1841 	1
0.1848 	1
0.1855 	1
0.1862 	1
0.1869 	0.999972
0.1876 	0.999946
0.1883 	0.999937
0.189 	0.999916
0.1897 	0.999876
0.1904 	0.999847
0.1911 	0.999825
0.1918 	0.998112
0.1925 	0.996045
0.1932 	0.994986
0.1939 	0.993467
0.1946 	0.990254
0.1953 	0.987328
0.196 	0.984783
0.1967 	0.967344
0.1974 	0.941629
0.1981 	0.923756
0.1988 	0.904604
0.1995 	0.863927
0.2002 	0.823852
0.2009 	0.785282
0.2016 	0.734741
0.2023 	0.67223
0.203 	0.612772
0.2037 	0.554016
0.2044 	0.473029
0.2051 	0.390118
0.2058 	0.305921
0.2065 	0.236049
0.2072 	0.191963
0.2079 	0.142455
0.2086 	0.0902971
0.2093 	0.0696623
0.21 	0.057625
0.2107 	0.042503
0.2114 	0.0294844
0.2121 	0.0241789
0.2128 	0.0162926
0.2135 	0.00612277
0.2142 	0.00226567
0.2149 	0.00191574
0.2156 	0.00145249
0.2163 	0.00099304
0.217 	0.000828486
0.2177 	0.000598617
0.2184 	0.000266332
0.2191 	9.28906e-05
0.2198 	7.82984e-05
0.2205 	6.04265e-05
0.2212 	4.12426e-05
0.2219 	3.36497e-05
0.2226 	2.53719e-05
0.2233 	1.23199e-05
0.224 	3.72771e-06
0.2247 	3.16321e-06
0.2254 	2.48705e-06
0.2261 	1.72713e-06
0.2268 	1.36068e-06
0.2275 	1.07348e-06
0.2282 	5.52339e-07
0.2289 	1.3855e-07
0.2296 	1.18393e-07
0.2303 	9.49504e-08
0.231 	6.71282e-08
0.2317 	5.12168e-08
0.2324 	4.19228e-08
0.2331 	2.30183e-08
0.2338 	5.09961e-09
0.2345 	4.39159e-09
0.2352 	3.59889e-09
0.2359 	2.59453e-09
0.2366 	1.9278e-09
0.2373 	1.59871e-09
0.238 	9.62212e-10
0.2387 	2.6048e-10
0.2394 	1.85845e-10
0.2401 	1.57766e-10
0.2408 	1.19562e-10
0.2415 	9.03978e-11
0.2422 	7.75063e-11
0.2429 	5.47599e-11
0.2436 	2.74574e-11
0.2443 	2.00364e-11
0.245 	1.80378e-11
0.2457 	1.54846e-11
0.2464 	1.32157e-11
0.2471 	1.19886e-11
0.2478 	1.03675e-11
0.2485 	8.41457e-12
0.2492 	7.31228e-12
0.2499 	6.68258e-12
0.2506 	5.99694e-12
0.2513 	5.32045e-12
0.252 	4.88395e-12
0.2527 	4.40134e-12
0.2534 	3.85007e-12
0.2541 	3.42718e-12
0.2548 	3.1327e-12
0.2555 	2.82736e-12
0.2562 	2.51768e-12
0.2569 	2.30295e-12
0.2576 	2.08597e-12
0.2583 	1.84193e-12
0.259 	1.63404e-12
0.2597 	1.49123e-12
0.2604 	1.34627e-12
0.2611 	1.19971e-12
0.2618 	1.08844e-12
0.2625 	9.851e-13
0.2632 	8.69259e-13
0.2639 	7.62917e-13
0.2646 	6.91407e-13
0.2653 	6.19496e-13
0.266 	5.47049e-13
0.2667 	4.89084e-13
0.2674 	4.39166e-13
0.2681 	3.83063e-13
0.2688 	3.28408e-13
0.2695 	2.94359e-13
0.2702 	2.6023e-13
0.2709 	2.25903e-13
0.2716 	1.9745e-13
0.2723 	1.74872e-13
0.273 	1.49846e-13
0.2737 	1.24345e-13
0.2744 	1.09593e-13
0.2751 	9.5656e-14
0.2758 	8.16505e-14
0.2765 	6.95184e-14
0.2772 	6.07583e-14
0.2779 	5.11768e-14
0.2786 	4.12374e-14
0.2793 	3.53616e-14
0.28 	3.0594e-14
0.2807 	2.58177e-14
0.2814 	2.14459e-14
0.2821 	1.85578e-14
0.2828 	1.54576e-14
0.2835 	1.21878e-14
0.2842 	1.01154e-14
0.2849 	8.70822e-15
0.2856 	7.30641e-15
0.2863 	5.94597e-15
0.287 	5.112e-15
0.2877 	4.23659e-15
0.2884 	3.30266e-15
0.2891 	2.64842e-15
0.2898 	2.27387e-15
0.2905 	1.90241e-15
0.2912 	1.53219e-15
0.2919 	1.3021e-15
0.2926 	1.07667e-15
0.2933 	8.34992e-16
0.294 	6.46491e-16
0.2947 	5.53719e-16
0.2954 	4.61845e-16
0.2961 	3.70644e-16
0.2968 	3.08889e-16
0.2975 	2.5456e-16
0.2982 	1.96261e-16
0.2989 	1.45886e-16
0.2996 	1.24567e-16
0.3003 	1.03425e-16
0.301 	8.2518e-17
0.3017 	6.72331e-17
0.3024 	5.50718e-17
0.3031 	4.20403e-17
0.3038 	2.96179e-17
0.3045 	2.52112e-17
0.3052 	2.08292e-17
0.3059 	1.65092e-17
0.3066 	1.31131e-17
0.3073 	1.06411e-17
0.308 	8.04117e-18
0.3087 	5.41875e-18
0.3094 	4.4906e-18
0.3101 	3.69519e-18
0.3108 	2.91415e-18
0.3115 	2.25468e-18
0.3122 	1.81405e-18
0.3129 	1.35848e-18
0.3136 	8.96777e-19
0.3143 	6.9925e-19
0.315 	5.73772e-19
0.3157 	4.51228e-19
0.3164 	3.40288e-19
0.3171 	2.71902e-19
0.3178 	2.02192e-19
0.3185 	1.31478e-19
0.3192 	9.51611e-20
0.3199 	7.79549e-20
0.3206 	6.11563e-20
0.3213 	4.49601e-20
0.322 	3.57117e-20
0.3227 	2.63826e-20
0.3234 	1.69453e-20
0.3241 	1.12056e-20
0.3248 	9.16363e-21
0.3255 	7.17121e-21
0.3262 	5.19862e-21
0.3269 	4.05468e-21
0.3276 	2.97267e-21
0.3283 	1.88614e-21
0.329 	1.11474e-21
0.3297 	9.1059e-22
0.3304 	7.11046e-22
0.3311 	5.14954e-22
0.3318 	3.8924e-22
0.3325 	2.82894e-22
0.3332 	1.77571e-22
0.3339 	9.12354e-23
0.3346 	7.45193e-23
0.3353 	5.81067e-23
0.336 	4.20988e-23
0.3367 	3.08255e-23
0.3374 	2.21838e-23
0.3381 	1.38082e-23
0.3388 	5.95321e-24
0.3395 	4.86646e-24
0.3402 	3.79287e-24
0.3409 	2.75219e-24
0.3416 	1.95177e-24
0.3423 	1.39162e-24
0.343 	8.58227e-25
0.3437 	3.29073e-25
0.3444 	2.41697e-25
0.3451 	1.88595e-25
0.3458 	1.37227e-25
0.3465 	9.43065e-26
0.3472 	6.65929e-26
0.3479 	4.06401e-26
0.3486 	1.5365e-26
0.3493 	8.49688e-27
0.35 	6.6491e-27
0.3507 	4.8578e-27
0.3514 	3.24122e-27
0.3521 	2.26533e-27
0.3528 	1.3639e-27
0.3535 	5.1616e-28
0.3542 	1.87721e-28
0.3549 	1.47789e-28
0.3556 	1.08493e-28
0.3563 	7.05447e-29
0.357 	4.87346e-29
0.3577 	2.87579e-29
0.3584 	1.1115e-29
0.3591 	2.08094e-30
0.3598 	1.6561e-30
0.3605 	1.22703e-30
0.3612 	7.96263e-31
0.3619 	5.32743e-31
0.3626 	3.03278e-31
0.3633 	1.23527e-31
0.364 	7.4738e-33
0.3647 	6.08133e-33
0.3654 	4.596e-33
0.3661 	3.04102e-33
0.3668 	1.93969e-33
0.3675 	1.02615e-33
0.3682 	4.54596e-34
0.3689 	5.33824e-36
0.3696 	4.51889e-36
0.3703 	3.55486e-36
0.371 	2.39792e-36
0.3717 	1.47012e-36
0.3724 	6.77099e-37
0.3731 	3.26473e-37
0.3738 	8.82238e-40
0.3745 	7.74427e-40
0.3752 	6.40256e-40
0.3759 	4.40189e-40
0.3766 	2.67016e-40
0.3773 	1.20738e-40
0.378 	5.64645e-41
0.3787 	3.85414e-42
0.3794 	8.6562e-44
0.3801 	7.47175e-44
0.3808 	5.23169e-44
0.3815 	3.19141e-44
0.3822 	1.51076e-44
0.3829 	6.63527e-45
0.3836 	1.17814e-45
0.3843 	8.04375e-48
0.385 	7.18452e-48
0.3857 	5.11714e-48
0.3864 	3.1568e-48
0.3871 	1.58897e-48
0.3878 	6.62069e-49
0.3885 	1.74764e-49
0.3892 	6.79393e-52
0.3899 	6.0985e-52
0.3906 	4.51878e-52
0.3913 	2.82094e-52
0.392 	1.50357e-52
0.3927 	6.00782e-53
0.3934 	2.00638e-53
0.3941 	5.37433e-56
0.3948 	4.84447e-56
0.3955 	3.72758e-56
0.3962 	2.37588e-56
0.3969 	1.31662e-56
0.3976 	5.06353e-57
0.3983 	1.98393e-57
0.399 	4.0258e-60
0.3997 	3.6472e-60
0.4004 	2.91107e-60
0.4011 	1.90679e-60
0.4018 	1.08243e-60
0.4025 	4.00587e-61
0.4032 	1.76423e-61
0.4039 	2.878e-64
0.4046 	2.62274e-64
0.4053 	2.17078e-64
0.406 	1.45656e-64
0.4067 	8.44483e-65
0.4074 	3.00478e-65
0.4081 	1.44779e-65
0.4088 	1.97992e-68
0.4095 	1.81567e-68
0.4102 	1.55834e-68
0.4109 	1.06829e-68
0.4116 	6.31358e-69
0.4123 	2.47554e-69
0.413 	1.1178e-69
0.4137 	7.57523e-71
0.4144 	1.20547e-72
0.4151 	1.0601e-72
0.4158 	7.48665e-73
0.4165 	4.56367e-73
0.4172 	1.98522e-73
0.4179 	8.23826e-74
0.4186 	1.45375e-74
0.4193 	-1.03927e-74
0.42 	-2.36183e-74
0.4207 	-1.0418e-74
0.4214 	-4.89503e-77
0.4221 	-6.10628e-77
0.4228 	-6.77945e-77
0.4235 	-7.10062e-77
0.4242 	-6.32514e-75
0.4249 	-1.60521e-74
0.4256 	-9.09991e-75
0.4263 	-6.25442e-77
0.427 	-5.64974e-77
0.4277 	-5.26106e-77
0.4284 	-5.12269e-77
0.4291 	-3.40442e-75
0.4298 	-1.01123e-74
0.4305 	-7.23462e-75
0.4312 	-5.22774e-76
0.4319 	-3.905e-77
0.4326 	-3.55935e-77
0.4333 	-3.45546e-77
0.434 	-1.63316e-75
0.4347 	-6.1112e-75
0.4354 	-5.46986e-75
0.4361 	-9.88982e-76
0.4368 	-2.62019e-77
0.4375 	-2.33891e-77
0.4382 	-2.26647e-77
0.4389 	-6.42794e-76
0.4396 	-3.53945e-75
0.4403 	-3.95243e-75
0.441 	-1.05382e-75
0.4417 	-1.71429e-77
0.4424 	-1.49573e-77
0.4431 	-1.44689e-77
0.4438 	-1.4373e-76
0.4445 	-1.95986e-75
0.4452 	-2.73783e-75
0.4459 	-9.20409e-76
0.4466 	-1.09376e-77
0.4473 	-9.43018e-78
0.448 	-8.98969e-78
0.4487 	-8.67068e-78
0.4494 	-1.03372e-75
0.4501 	-1.82211e-75
0.4508 	-7.17359e-76
0.4515 	-6.80447e-78
0.4522 	-5.82658e-78
0.4529 	-5.43555e-78
0.4536 	-5.23356e-78
0.4543 	-5.16448e-76
0.455 	-1.16714e-75
0.4557 	-5.15929e-76
0.4564 	-4.12702e-78
0.4571 	-3.51161e-78
0.4578 	-3.19836e-78
0.4585 	-3.07431e-78
0.4592 	-2.42188e-76
0.4599 	-6.14214e-76
0.4606 	-3.48212e-76
0.4613 	-2.44012e-78
0.462 	-2.0644e-78
0.4627 	-1.83158e-78
0.4634 	-1.75767e-78
0.4641 	-1.04905e-76
0.4648 	-3.11275e-76
0.4655 	-2.22699e-76
0.4662 	-1.61452e-77
0.4669 	-1.18382e-78
0.4676 	-1.02094e-78
0.4683 	-9.78211e-79
0.469 	-4.06296e-77
0.4697 	-1.51732e-76
0.4704 	-1.358e-76
0.4711 	-2.45933e-77
0.4718 	-6.62222e-79
0.4725 	-5.54021e-79
0.4732 	-5.30038e-79
0.4739 	-1.29539e-77
0.4746 	-7.10211e-77
0.4753 	-7.92916e-77
0.476 	-2.11665e-77
0.4767 	-3.61381e-79
0.4774 	-2.92729e-79
0.4781 	-2.79656e-79
0.4788 	-2.37256e-78
0.4795 	-3.18449e-77
0.4802 	-4.4467e-77
0.4809 	-1.49636e-77
0.4816 	-1.92387e-79
0.4823 	-1.53564e-79
0.483 	-1.43689e-79
0.4837 	-1.36767e-79
0.4844 	-1.363e-77
0.4851 	-2.40075e-77
0.4858 	-9.45955e-78
0.4865 	-9.9912e-80
0.4872 	-7.94232e-80
0.4879 	-7.18983e-80
0.4886 	-6.83376e-80
0.4893 	-5.53855e-78
0.49 	-1.25017e-77
0.4907 	-5.53035e-78
0.4914 	-5.06135e-80
0.4921 	-4.00991e-80
0.4928 	-3.50369e-80
0.4935 	-3.32568e-80
0.4942 	-2.11782e-78
0.4949 	-5.36147e-78
0.4956 	-3.04111e-78
0.4963 	-2.50087e-80
0.497 	-1.97614e-80
0.4977 	-1.6629e-80
0.4984 	-1.5764e-80
0.4991 	-7.50101e-79
0.4998 	-2.21965e-78
0.5005 	-1.58846e-78
0.5012 	-1.1698e-79
0.5019 	-9.50485e-81
0.5026 	-7.68706e-81
0.5033 	-7.2784e-81
0.504 	-2.38359e-79
0.5047 	-8.86126e-79
0.5054 	-7.93074e-79
0.5061 	-1.44408e-79
0.5068 	-4.46146e-81
0.5075 	-3.46145e-81
0.5082 	-3.27371e-81
0.5089 	-6.26816e-80
0.5096 	-3.40611e-79
0.5103 	-3.80141e-79
0.511 	-1.01805e-79
0.5117 	-2.04366e-81
0.5124 	-1.51866e-81
0.5131 	-1.43477e-81
0.5138 	-9.65162e-81
0.5145 	-1.25783e-79
0.5152 	-1.75503e-79
0.5159 	-5.91925e-80
0.5166 	-9.13609e-82
0.5173 	-6.67052e-82
0.518 	-6.12901e-82
0.5187 	-5.76431e-82
0.5194 	-4.4479e-80
0.5201 	-7.82414e-80
0.5208 	-3.08822e-80
0.5215 	-3.98632e-82
0.5222 	-2.91438e-82
0.5229 	-2.55274e-82
0.5236 	-2.39841e-82
0.5243 	-1.49825e-80
0.525 	-3.37502e-80
0.5257 	-1.49506e-80
0.5264 	-1.6978e-82
0.5271 	-1.24405e-82
0.5278 	-1.03699e-82
0.5285 	-9.73384e-83
0.5292 	-4.76612e-81
0.5299 	-1.20322e-80
0.5306 	-6.83106e-81
0.5313 	-7.05872e-83
0.532 	-5.18801e-83
0.5327 	-4.1096e-83
0.5334 	-3.85416e-83
0.5341 	-1.41e-81
0.5348 	-4.15548e-81
0.5355 	-2.97519e-81
0.5362 	-2.24593e-82
0.5369 	-2.11365e-83
0.5376 	-1.58931e-83
0.5383 	-1.48935e-83
0.539 	-3.76018e-82
0.5397 	-1.38897e-81
0.5404 	-1.24314e-81
0.5411 	-2.28212e-82
0.5418 	-8.41314e-84
0.5425 	-5.99973e-84
0.5432 	-5.61839e-84
0.5439 	-8.35516e-83
0.5446 	-4.48643e-82
0.5453 	-5.00482e-82
0.546 	-1.3465e-82
0.5467 	-3.27196e-84
0.5474 	-2.21158e-84
0.5481 	-2.06971e-84
0.5488 	-1.11229e-83
0.5495 	-1.39717e-82
0.5502 	-1.94751e-82
0.5509 	-6.58856e-83
0.5516 	-1.24339e-84
0.5523 	-8.24502e-85
0.553 	-7.44723e-85
0.5537 	-6.93227e-85
0.5544 	-4.18041e-83
0.5551 	-7.3417e-83
0.5558 	-2.90426e-83
0.5565 	-4.6172e-85
0.5572 	-3.09401e-85
0.5579 	-2.61806e-85
0.5586 	-2.43563e-85
0.5593 	-1.19536e-83
0.56 	-2.68623e-83
0.5607 	-1.19198e-83
0.5614 	-1.67564e-85
0.5621 	-1.13498e-85
0.5628 	-8.99539e-86
0.5635 	-8.36446e-86
0.5642 	-3.23825e-84
0.5649 	-8.14894e-84
0.5656 	-4.63142e-84
0.5663 	-5.94398e-86
0.567 	-4.06999e-86
0.5677 	-3.02164e-86
0.5684 	-2.80851e-86
0.5691 	-8.1843e-85
0.5698 	-2.40126e-84
0.5705 	-1.72016e-84
0.5712 	-1.33496e-85
0.5719 	-1.42684e-86
0.5726 	-9.92676e-87
0.5733 	-9.22329e-87
0.574 	-1.87133e-85
0.5747 	-6.8655e-85
0.5754 	-6.14491e-85
0.5761 	-1.13827e-85
0.5768 	-4.89098e-87
0.5775 	-3.19063e-87
0.5782 	-2.96364e-87
0.5789 	-3.58496e-86
0.5796 	-1.90151e-85
0.5803 	-2.12024e-85
0.581 	-5.73255e-86
0.5817 	-1.63943e-87
0.5824 	-1.00358e-87
0.5831 	-9.31947e-88
0.5838 	-4.20073e-87
0.5845 	-5.08962e-86
0.5852 	-7.08732e-86
0.5859 	-2.40543e-86
0.5866 	-5.37437e-88
0.5873 	-3.22709e-88
0.588 	-2.86895e-88
0.5887 	-2.64781e-88
0.5894 	-1.312e-86
0.5901 	-2.30045e-86
0.5908 	-9.12112e-87
0.5915 	-1.72345e-88
0.5922 	-1.05913e-88
0.5929 	-8.64901e-89
0.5936 	-7.98097e-89
0.5943 	-3.23995e-87
0.595 	-7.26378e-87
0.5957 	-3.22876e-87
0.5964 	-5.40783e-89
0.5971 	-3.39651e-89
0.5978 	-2.5543e-89
0.5985 	-2.35675e-89
0.5992 	-7.599e-88
0.5999 	-1.90641e-87
0.6006 	-1.08468e-87
0.6013 	-1.66081e-89
0.602 	-1.06465e-89
0.6027 	-7.39256e-90
0.6034 	-6.82041e-90
0.6041 	-1.66727e-88
0.6048 	-4.87113e-88
0.6055 	-3.49139e-88
0.6062 	-2.78219e-89
0.6069 	-3.26323e-90
0.6076 	-2.09748e-90
0.6083 	-1.93515e-90
0.609 	-3.32012e-89
0.6097 	-1.21039e-88
0.6104 	-1.08342e-88
0.6111 	-2.02435e-89
0.6118 	-9.78449e-91
0.6125 	-5.83653e-91
0.6132 	-5.38517e-91
0.6139 	-5.56761e-90
0.6146 	-2.92023e-89
0.6153 	-3.25481e-89
0.616 	-8.84189e-90
0.6167 	-2.87139e-91
0.6174 	-1.59353e-91
0.6181 	-1.47048e-91
0.6188 	-5.81594e-91
0.6195 	-6.82533e-90
0.6202 	-9.49573e-90
0.6209 	-3.23276e-90
0.6216 	-8.25133e-92
0.6223 	-4.4988e-92
0.623 	-3.94157e-92
0.6237 	-3.6125e-92
0.6244 	-1.5402e-90
0.6251 	-2.69664e-90
0.6258 	-1.07154e-90
0.6265 	-2.32307e-92
0.6272 	-1.31632e-92
0.6279 	-1.03762e-92
0.6286 	-9.51266e-93
0.6293 	-3.33837e-91
0.63 	-7.46849e-91
0.6307 	-3.32522e-91
0.6314 	-6.41154e-93
0.6321 	-3.76002e-93
0.6328 	-2.68412e-93
0.6335 	-2.46161e-93
0.6342 	-6.892e-92
0.6349 	-1.72424e-91
0.6356 	-9.82059e-92
0.6363 	-1.73578e-93
0.637 	-1.04983e-93
0.6377 	-6.82645e-94
0.6384 	-6.26321e-94
0.6391 	-1.33527e-92
0.6398 	-3.88619e-92
0.6405 	-2.78696e-92
0.6412 	-2.27686e-93
0.6419 	-2.86835e-94
0.6426 	-1.70785e-94
0.6433 	-1.5677e-94
0.644 	-2.35676e-93
0.6447 	-8.54197e-93
0.6454 	-7.64661e-93
0.6461 	-1.44084e-93
0.6468 	-7.67596e-95
0.6475 	-4.20446e-95
0.6482 	-3.86139e-95
0.6489 	-3.52151e-94
0.6496 	-1.82791e-93
0.6503 	-2.0366e-93
0.651 	-5.55863e-94
0.6517 	-2.01315e-95
0.6524 	-1.01841e-95
0.6531 	-9.35762e-96
0.6538 	-3.33306e-95
0.6545 	-3.79699e-94
0.6552 	-5.27804e-94
0.6559 	-1.8025e-94
0.6566 	-5.1742e-96
0.6573 	-2.57697e-96
0.658 	-2.22834e-96
0.6587 	-2.03237e-96
0.6594 	-7.61614e-95
0.6601 	-1.33155e-94
0.6608 	-5.30306e-95
0.6615 	-1.30136e-96
0.6622 	-6.83234e-97
0.6629 	-5.19539e-97
0.6636 	-4.73827e-97
0.6643 	-1.4609e-95
0.665 	-3.26117e-95
0.6657 	-1.4545e-95
0.6664 	-3.18899e-97
0.6671 	-1.74718e-97
0.6678 	-1.17628e-97
0.6685 	-1.07164e-97
0.6692 	-2.63154e-96
0.6699 	-6.56418e-96
0.6706 	-3.74282e-96
0.6713 	-7.54027e-98
0.672 	-4.2702e-98
0.6727 	-2.54486e-98
0.6734 	-2.31136e-98
0.6741 	-4.30478e-97
0.6748 	-1.24754e-96
0.6755 	-8.95144e-97
0.6762 	-7.49619e-98
0.6769 	-9.79483e-99
0.6776 	-5.11782e-99
0.6783 	-4.61764e-99
0.679 	-6.01586e-98
0.6797 	-2.16574e-97
0.6804 	-1.93866e-97
0.6811 	-3.68171e-98
0.6818 	-2.04479e-99
0.6825 	-9.16621e-100
0.6832 	-8.1676e-100
0.6839 	-6.36182e-99
0.6846 	-3.2605e-98
0.6853 	-3.63045e-98
0.686 	-9.94604e-99
0.6867 	-3.70295e-100
0.6874 	-1.37214e-100
0.6881 	-1.19531e-100
0.6888 	-3.58145e-100
0.6895 	-3.92863e-99
0.6902 	-5.45387e-99
0.6909 	-1.86603e-99
0.6916 	-5.39641e-101
0.6923 	-1.767e-101
0.693 	-1.30109e-101
0.6937 	-1.04452e-101
0.6944 	-3.3081e-100
0.6951 	-5.77116e-100
0.6958 	-2.30021e-100
0.6965 	-5.56934e-102
0.6972 	-1.87655e-102
0.6979 	-9.0974e-103
0.6986 	-6.45243e-103
0.6993 	-5.15709e-103
0.7 	-4.22983e-103
