0 	1
0.0007 	1
0.0014 	1
0.0021 	1
0.0028 	1
0.0035 	1
0.0042 	1
0.0049 	1
0.0056 	1
0.0063 	1
0.007 	1
0.0077 	1
0.0084 	1
0.0091 	1
0.0098 	1
0.0105 	1
0.0112 	1
0.0119 	1
0.0126 	1
0.0133 	1
0.014 	1
0.0147 	1
0.0154 	1
0.0161 	1
0.0168 	1
0.0175 	1
0.0182 	1
0.0189 	1
0.0196 	1
0.0203 	1
0.021 	1
0.0217 	1
0.0224 	1
0.0231 	1
0.0238 	1
0.0245 	1
0.0252 	1
0.0259 	1
0.0266 	1
0.0273 	1
0.028 	1
0.0287 	1
0.0294 	1
0.0301 	1
0.0308 	1
0.0315 	1
0.0322 	1
0.0329 	1
0.0336 	1
0.0343 	1
0.035 	1
0.0357 	1
0.0364 	1
0.0371 	1
0.0378 	1
0.0385 	1
0.0392 	1
0.0399 	1
0.0406 	1
0.0413 	1
0.042 	1
0.0427 	1
0.0434 	1
0.0441 	1
0.0448 	1
0.0455 	1
0.0462 	1
0.0469 	1
0.0476 	1
0.0483 	1
0.049 	1
0.0497 	1
0.0504 	1
0.0511 	1
0.0518 	1
0.0525 	1
0.0532 	1
0.0539 	1
0.0546 	1
0.0553 	1
0.056 	1
0.0567 	1
0.0574 	1
0.0581 	1
0.0588 	1
0.0595 	1
0.0602 	1
0.0609 	1
0.0616 	1
0.0623 	1
0.063 	1
0.0637 	1
0.0644 	1
0.0651 	1
0.0658 	1
0.0665 	1
0.0672 	1
0.0679 	1
0.0686 	1
0.0693 	1
0.07 	1
0.0707 	1
0.0714 	1
0.0721 	1
0.0728 	1
0.0735 	1
0.0742 	1
0.0749 	1
0.0756 	1
0.0763 	1
0.077 	1
0.0777 	1
0.0784 	1
0.0791 	1
0.0798 	1
0.0805 	1
0.0812 	1
0.0819 	1
0.0826 	1
0.0833 	1
0.084 	1
0.0847 	1
0.0854 	1
0.0861 	1
0.0868 	1
0.0875 	1
0.0882 	1
0.0889 	1
0.0896 	1
0.0903 	1
0.091 	1
0.0917 	1
0.0924 	1
0.0931 	1
0.0938 	1
0.0945 	1
0.0952 	1
0.0959 	1
0.0966 	1
0.0973 	1
0.098 	1
0.0987 	1
0.0994 	1
0.1001 	1
0.1008 	1
0.1015 	1
0.1022 	1
0.1029 	1
0.1036 	1
0.1043 	1
0.105 	1
0.1057 	1
0.1064 	1
0.1071 	1
0.1078 	1
0.1085 	1
0.1092 	1
0.1099 	1
0.1106 	1
0.1113 	1
0.112 	1
0.1127 	1
0.1134 	1
0.1141 	1
0.1148 	1
0.1155 	1
0.1162 	1
0.1169 	1
0.1176 	1
0.1183 	1
0.119 	1
0.1197 	1
0.1204 	1
0.1211 	1
0.1218 	1
0.1225 	1
0.1232 	1
0.1239 	1
0.1246 	1
0.1253 	1
0.126 	1
0.1267 	1
0.1274 	1
0.1281 	1
0.1288 	1
0.1295 	1
0.1302 	1
0.1309 	1
0.1316 	1
0.1323 	1
0.133 	1
0.1337 	1
0.1344 	1
0.1351 	1
0.1358 	1
0.1365 	1
0.1372 	1
0.1379 	1
0.1386 	1
0.1393 	1
0.14 	1
0.1407 	1
0.1414 	1
0.1421 	1
0.1428 	1
0.1435 	1
0.1442 	1
0.1449 	1
0.1456 	1
0.1463 	1
0.147 	1
0.1477 	1
0.1484 	1
0.1491 	1
0.1498 	1
0.1505 	1
0.1512 	1
0.1519 	1
0.1526 	1
0.1533 	1
0.154 	1
0.1547 	1
0.1554 	1
0.1561 	1
0.1568 	1
0.1575 	1
0.1582 	1
0.1589 	1
0.1596 	1
0.1603 	1
0.161 	1
0.1617 	1
0.1624 	1
0.1631 	1
0.1638 	1
0.1645 	1
0.1652 	1
0.1659 	1
0.1666 	1
0.1673 	1
0.168 	1
0.1687 	1
0.1694 	1
0.1701 	1
0.1708 	1
0.1715 	1
0.1722 	1
0.1729 	1
0.1736 	1
0.1743 	1
0.175 	1
0.1757 	1
0.1764 	1
0.1771 	1
0.1778 	1
0.1785 	1
0.1792 	1
0.1799 	1
0.1806 	1
0.1813 	1
0.182 	1
0.1827 	1
0.1834 	1
0.1841 	1
0.1848 	1
0.1855 	1
0.1862 	1
0.1869 	1
0.1876 	1
0.1883 	1
0.189 	1
0.1897 	1
0.1904 	1
0.1911 	1
0.1918 	1
0.1925 	1
0.1932 	1
0.1939 	1
0.1946 	1
0.1953 	1
0.196 	1
0.1967 	1
0.1974 	1
0.1981 	1
0.1988 	1
0.1995 	1
0.2002 	1
0.2009 	1
0.2016 	1
0.2023 	1
0.203 	1
0.2037 	1
0.2044 	1
0.2051 	1
0.2058 	1
0.2065 	1
0.2072 	1
0.2079 	1
0.2086 	1
0.2093 	1
0.21 	1
0.2107 	1
0.2114 	1
0.2121 	1
0.2128 	1
0.2135 	1
0.2142 	1
0.2149 	1
0.2156 	1
0.2163 	1
0.217 	1
0.2177 	1
0.2184 	1
0.2191 	1
0.2198 	1
0.2205 	1
0.2212 	1
0.2219 	1
0.2226 	1
0.2233 	1
0.224 	1
0.2247 	1
0.2254 	1
0.2261 	1
0.2268 	1
0.2275 	1
0.2282 	1
0.2289 	1
0.2296 	1
0.2303 	1
0.231 	1
0.2317 	1
0.2324 	1
0.2331 	1
0.2338 	1
0.2345 	1
0.2352 	1
0.2359 	1
0.2366 	1
0.2373 	1
0.238 	1
0.2387 	1
0.2394 	1
0.2401 	1
0.2408 	1
0.2415 	1
0.2422 	1
0.2429 	1
0.2436 	1
0.2443 	1
0.245 	1
0.2457 	1
0.2464 	1
0.2471 	1
0.2478 	1
0.2485 	0.999999
0.2492 	0.999999
0.2499 	0.999999
0.2506 	0.999999
0.2513 	0.999998
0.252 	0.999997
0.2527 	0.999995
0.2534 	0.999994
0.2541 	0.999993
0.2548 	0.999992
0.2555 	0.999986
0.2562 	0.999972
0.2569 	0.999958
0.2576 	0.999944
0.2583 	0.999929
0.259 	0.999915
0.2597 	0.999901
0.2604 	0.999836
0.2611 	0.999613
0.2618 	0.99939
0.2625 	0.999167
0.2632 	0.998944
0.2639 	0.998721
0.2646 	0.998498
0.2653 	0.997903
0.266 	0.992686
0.2667 	0.987469
0.2674 	0.982254
0.2681 	0.977038
0.2688 	0.971823
0.2695 	0.966607
0.2702 	0.954107
0.2709 	0.917016
0.2716 	0.875942
0.2723 	0.834871
0.273 	0.793799
0.2737 	0.752728
0.2744 	0.711656
0.2751 	0.647148
0.2758 	0.580264
0.2765 	0.518606
0.2772 	0.456948
0.2779 	0.395289
0.2786 	0.333631
0.2793 	0.271973
0.28 	0.220937
0.2807 	0.186678
0.2814 	0.158046
0.2821 	0.129412
0.2828 	0.100777
0.2835 	0.072142
0.2842 	0.0435073
0.2849 	0.0221254
0.2856 	0.0187205
0.2863 	0.0156118
0.287 	0.0125024
0.2877 	0.00939302
0.2884 	0.00628361
0.2891 	0.0031742
0.2898 	0.000471595
0.2905 	0.000414816
0.2912 	0.000346095
0.2919 	0.000277347
0.2926 	0.000208597
0.2933 	0.000139847
0.294 	7.10973e-05
0.2947 	2.34749e-06
0.2954 	1.40316e-06
0.2961 	1.17541e-06
0.2968 	9.4757e-07
0.2975 	7.197e-07
0.2982 	4.91831e-07
0.2989 	2.63961e-07
0.2996 	3.60914e-08
0.3003 	6.26889e-10
0.301 	5.27989e-10
0.3017 	4.29043e-10
0.3024 	3.30073e-10
0.3031 	2.31103e-10
0.3038 	1.32132e-10
0.3045 	3.31619e-11
0.3052 	3.82567e-12
0.3059 	4.13435e-12
0.3066 	4.44112e-12
0.3073 	4.74768e-12
0.308 	5.05423e-12
0.3087 	5.36079e-12
0.3094 	5.66734e-12
0.3101 	5.95056e-12
0.3108 	6.14859e-12
0.3115 	6.31534e-12
0.3122 	6.48205e-12
0.3129 	6.64877e-12
0.3136 	6.81548e-12
0.3143 	6.98219e-12
0.315 	7.05253e-12
0.3157 	6.99107e-12
0.3164 	6.8915e-12
0.3171 	6.79226e-12
0.3178 	6.69302e-12
0.3185 	6.59378e-12
0.3192 	6.49453e-12
0.3199 	6.34032e-12
0.3206 	6.06779e-12
0.3213 	5.76881e-12
0.322 	5.47039e-12
0.3227 	5.17197e-12
0.3234 	4.87356e-12
0.3241 	4.57514e-12
0.3248 	4.2605e-12
0.3255 	3.86592e-12
0.3262 	3.52005e-12
0.3269 	3.1744e-12
0.3276 	2.82877e-12
0.3283 	2.48314e-12
0.329 	2.13751e-12
0.3297 	1.79188e-12
0.3304 	1.55444e-12
0.3311 	1.36246e-12
0.3318 	1.17034e-12
0.3325 	9.7817e-13
0.3332 	7.86003e-13
0.3339 	5.93836e-13
0.3346 	4.0167e-13
0.3353 	3.29495e-13
0.336 	2.82075e-13
0.3367 	2.34551e-13
0.3374 	1.86968e-13
0.3381 	1.39386e-13
0.3388 	9.18033e-14
0.3395 	4.42208e-14
0.3402 	2.81669e-14
0.3409 	2.38343e-14
0.3416 	1.95937e-14
0.3423 	1.53382e-14
0.343 	1.10828e-14
0.3437 	6.82734e-15
0.3444 	2.5719e-15
0.3451 	6.75857e-16
0.3458 	5.72413e-16
0.3465 	4.71185e-16
0.3472 	3.69177e-16
0.3479 	2.67169e-16
0.3486 	1.65162e-16
0.3493 	6.31541e-17
0.35 	3.14505e-18
0.3507 	2.67648e-18
0.3514 	2.21551e-18
0.3521 	1.74782e-18
0.3528 	1.28014e-18
0.3535 	8.12454e-19
0.3542 	3.4477e-19
0.3549 	1.92498e-21
0.3556 	1.7151e-21
0.3563 	1.42914e-21
0.357 	1.13611e-21
0.3577 	8.43081e-22
0.3584 	5.50053e-22
0.3591 	2.57024e-22
0.3598 	1.2947e-25
0.3605 	1.20658e-25
0.3612 	1.01143e-25
0.3619 	8.10342e-26
0.3626 	6.08791e-26
0.3633 	4.0724e-26
0.364 	2.0569e-26
0.3647 	4.13925e-28
0.3654 	7.04909e-30
0.3661 	5.93329e-30
0.3668 	4.79031e-30
0.3675 	3.6399e-30
0.3682 	2.4895e-30
0.3689 	1.3391e-30
0.3696 	1.88695e-31
0.3703 	4.13762e-34
0.371 	3.49721e-34
0.3717 	2.84405e-34
0.3724 	2.18379e-34
0.3731 	1.52354e-34
0.3738 	8.63287e-35
0.3745 	2.03033e-35
0.3752 	2.36618e-38
0.3759 	2.00673e-38
0.3766 	1.64323e-38
0.3773 	1.27405e-38
0.378 	9.04867e-39
0.3787 	5.35683e-39
0.3794 	1.665e-39
0.3801 	1.31035e-42
0.3808 	1.11473e-42
0.3815 	9.18815e-43
0.3822 	7.18833e-43
0.3829 	5.18851e-43
0.3836 	3.18869e-43
0.3843 	1.18887e-43
0.385 	7.05767e-47
0.3857 	6.02148e-47
0.3864 	4.9941e-47
0.3871 	3.94005e-47
0.3878 	2.88599e-47
0.3885 	1.83194e-47
0.3892 	7.77882e-48
0.3899 	3.57014e-51
0.3906 	3.18522e-51
0.3913 	2.65731e-51
0.392 	2.11294e-51
0.3927 	1.56858e-51
0.3934 	1.02422e-51
0.3941 	4.79855e-52
0.3948 	1.78095e-55
0.3955 	1.66138e-55
0.3962 	1.39307e-55
0.3969 	1.11636e-55
0.3976 	8.39007e-56
0.3983 	5.6165e-56
0.399 	2.84294e-56
0.3997 	6.93712e-58
0.4004 	8.58889e-60
0.4011 	7.23316e-60
0.4018 	5.84158e-60
0.4025 	4.44023e-60
0.4032 	3.03887e-60
0.4039 	1.63752e-60
0.4046 	2.36169e-61
0.4053 	4.41261e-64
0.406 	3.73142e-64
0.4067 	3.03558e-64
0.4074 	2.3316e-64
0.4081 	1.62763e-64
0.4088 	9.23651e-65
0.4095 	2.19676e-65
0.4102 	2.25505e-68
0.4109 	1.91314e-68
0.4116 	1.56708e-68
0.4123 	1.21537e-68
0.413 	8.63653e-69
0.4137 	5.11942e-69
0.4144 	1.6023e-69
0.4151 	1.14439e-72
0.4158 	9.73763e-73
0.4165 	8.02794e-73
0.4172 	6.28239e-73
0.4179 	4.53684e-73
0.4186 	2.7913e-73
0.4193 	1.04575e-73
0.42 	5.75772e-77
0.4207 	4.9133e-77
0.4214 	4.07544e-77
0.4221 	3.21611e-77
0.4228 	2.35679e-77
0.4235 	1.49747e-77
0.4242 	6.3815e-78
0.4249 	2.75102e-81
0.4256 	2.45524e-81
0.4263 	2.04834e-81
0.427 	1.62913e-81
0.4277 	1.20991e-81
0.4284 	7.907e-82
0.4291 	3.71485e-82
0.4298 	1.30166e-85
0.4305 	1.21492e-85
0.4312 	1.01868e-85
0.4319 	8.16509e-86
0.4326 	6.13885e-86
0.4333 	4.1126e-86
0.434 	2.08636e-86
0.4347 	6.01216e-88
0.4354 	5.95607e-90
0.4361 	5.01563e-90
0.4368 	4.05134e-90
0.4375 	3.08054e-90
0.4382 	2.10974e-90
0.4389 	1.13894e-90
0.4396 	1.68139e-91
0.4403 	2.89536e-94
0.441 	2.44824e-94
0.4417 	1.99191e-94
0.4424 	1.53047e-94
0.4431 	1.06903e-94
0.4438 	6.0759e-95
0.4445 	1.46148e-95
0.4452 	1.39772e-98
0.4459 	1.1858e-98
0.4466 	9.71367e-99
0.4473 	7.53583e-99
0.448 	5.358e-99
0.4487 	3.18017e-99
0.4494 	1.00234e-99
0.4501 	6.7018e-103
0.4508 	5.70287e-103
0.4515 	4.70159e-103
0.4522 	3.68034e-103
0.4529 	2.65909e-103
0.4536 	1.63784e-103
0.4543 	6.16595e-104
0.455 	3.19221e-107
0.4557 	2.72428e-107
0.4564 	2.25956e-107
0.4571 	1.78359e-107
0.4578 	1.30762e-107
0.4585 	8.31653e-108
0.4592 	3.55684e-108
0.4599 	1.44809e-111
0.4606 	1.29276e-111
0.4613 	1.07836e-111
0.462 	8.57872e-112
0.4627 	6.37384e-112
0.4634 	4.16896e-112
0.4641 	1.96408e-112
0.4648 	2.70276e-116
0.4655 	5.70096e-116
0.4662 	4.62261e-116
0.4669 	3.60417e-116
0.4676 	2.59033e-116
0.4683 	1.57649e-116
0.469 	5.62655e-117
0.4697 	-4.51182e-117
0.4704 	-4.44326e-117
0.4711 	-2.13146e-117
0.4718 	-1.63462e-117
0.4725 	-1.63275e-117
0.4732 	-1.63088e-117
0.4739 	-1.62902e-117
0.4746 	-1.62715e-117
0.4753 	-1.59494e-117
0.476 	-7.45235e-118
0.4767 	-4.41142e-118
0.4774 	-4.40167e-118
0.4781 	-4.39191e-118
0.4788 	-4.38216e-118
0.4795 	-4.3724e-118
0.4802 	-1.21611e-117
0.4809 	-2.26843e-118
0.4816 	-1.094e-118
0.4823 	-1.09113e-118
0.483 	-1.08826e-118
0.4837 	-1.08538e-118
0.4844 	-1.08251e-118
0.4851 	-5.43569e-118
0.4858 	-6.37587e-119
0.4865 	-2.58793e-119
0.4872 	-2.58062e-119
0.4879 	-2.57331e-119
0.4886 	-2.56599e-119
0.4893 	-2.55868e-119
0.49 	-1.84251e-118
0.4907 	-1.69559e-119
0.4914 	-5.91284e-120
0.4921 	-5.89541e-120
0.4928 	-5.87797e-120
0.4935 	-5.86053e-120
0.4942 	-5.8431e-120
0.4949 	-2.84846e-119
0.4956 	-4.31391e-120
0.4963 	-1.3113e-120
0.497 	-1.30731e-120
0.4977 	-1.30332e-120
0.4984 	-1.29933e-120
0.4991 	-1.29534e-120
0.4998 	-3.38672e-120
0.5005 	-1.05605e-120
0.5012 	-3.34422e-121
0.5019 	-2.82059e-121
0.5026 	-2.81175e-121
0.5033 	-2.80292e-121
0.504 	-2.79408e-121
0.5047 	-2.78524e-121
0.5054 	-2.4961e-121
0.5061 	-9.3e-122
0.5068 	-5.92916e-122
0.5075 	-5.91013e-122
0.5082 	-5.8911e-122
0.5089 	-5.87207e-122
0.5096 	-5.85305e-122
0.5103 	-5.71004e-122
0.511 	-2.40017e-122
0.5117 	-1.21552e-122
0.5124 	-1.21153e-122
0.5131 	-1.20754e-122
0.5138 	-1.20354e-122
0.5145 	-1.19955e-122
0.5152 	-3.03727e-122
0.5159 	-5.84585e-123
0.5166 	-2.43215e-123
0.5173 	-2.42398e-123
0.518 	-2.41581e-123
0.5187 	-2.40764e-123
0.5194 	-2.39947e-123
0.5201 	-1.10461e-122
0.5208 	-1.3571e-123
0.5215 	-4.75316e-124
0.5222 	-4.73684e-124
0.5229 	-4.72052e-124
0.5236 	-4.7042e-124
0.5243 	-4.68787e-124
0.525 	-3.10344e-123
0.5257 	-3.02234e-124
0.5264 	-9.07867e-125
0.5271 	-9.04681e-125
0.5278 	-9.01496e-125
0.5285 	-8.9831e-125
0.5292 	-8.95124e-125
0.5299 	-4.02017e-124
0.5306 	-6.48651e-125
0.5313 	-1.69582e-125
0.532 	-1.68974e-125
0.5327 	-1.68366e-125
0.5334 	-1.67758e-125
0.5341 	-1.6715e-125
0.5348 	-4.04161e-125
0.5355 	-1.34608e-125
0.5362 	-3.78964e-126
0.5369 	-3.08833e-126
0.5376 	-3.07698e-126
0.5383 	-3.06563e-126
0.539 	-3.05429e-126
0.5397 	-3.04294e-126
0.5404 	-2.70802e-126
0.5411 	-9.34357e-127
0.5418 	-5.52661e-127
0.5425 	-5.50588e-127
0.5432 	-5.48515e-127
0.5439 	-5.46441e-127
0.5446 	-5.44368e-127
0.5453 	-5.29249e-127
0.546 	-2.10843e-127
0.5467 	-9.68886e-128
0.5474 	-9.65176e-128
0.5481 	-9.61466e-128
0.5488 	-9.57756e-128
0.5495 	-9.54046e-128
0.5502 	-2.2318e-127
0.5509 	-4.46739e-128
0.5516 	-1.66496e-128
0.5523 	-1.65846e-128
0.553 	-1.65195e-128
0.5537 	-1.64545e-128
0.5544 	-1.63894e-128
0.5551 	-6.91836e-128
0.5558 	-9.01116e-129
0.5565 	-2.80599e-129
0.5572 	-2.7948e-129
0.5579 	-2.78362e-129
0.5586 	-2.77244e-129
0.5593 	-2.76126e-129
0.56 	-1.66924e-128
0.5607 	-1.74493e-129
0.5614 	-4.64026e-130
0.5621 	-4.62141e-130
0.5628 	-4.60256e-130
0.5635 	-4.5837e-130
0.5642 	-4.56485e-130
0.5649 	-1.87526e-129
0.5656 	-3.26183e-130
0.5663 	-7.53344e-131
0.567 	-7.50224e-131
0.5677 	-7.47105e-131
0.5684 	-7.43985e-131
0.5691 	-7.40866e-131
0.5698 	-1.65175e-130
0.5705 	-5.90933e-131
0.5712 	-1.51481e-131
0.5719 	-1.19622e-131
0.5726 	-1.19115e-131
0.5733 	-1.18608e-131
0.574 	-1.18102e-131
0.5747 	-1.17595e-131
0.5754 	-1.04059e-131
0.5761 	-3.3851e-132
0.5768 	-1.87429e-132
0.5775 	-1.8662e-132
0.5782 	-1.85811e-132
0.5789 	-1.85002e-132
0.5796 	-1.84194e-132
0.5803 	-1.78516e-132
0.581 	-6.83111e-133
0.5817 	-2.88709e-133
0.5824 	-2.87441e-133
0.5831 	-2.86172e-133
0.5838 	-2.84904e-133
0.5845 	-2.83636e-133
0.5852 	-6.1149e-133
0.5859 	-1.28855e-133
0.5866 	-4.37389e-134
0.5873 	-4.35434e-134
0.588 	-4.33478e-134
0.5887 	-4.31523e-134
0.5894 	-4.29567e-134
0.5901 	-1.6503e-133
0.5908 	-2.31155e-134
0.5915 	-6.51983e-135
0.5922 	-6.49018e-135
0.5929 	-6.46052e-135
0.5936 	-6.43087e-135
0.5943 	-6.40121e-135
0.595 	-3.50079e-134
0.5957 	-3.98328e-135
0.5964 	-9.56607e-136
0.5971 	-9.52182e-136
0.5978 	-9.47757e-136
0.5985 	-9.43333e-136
0.5992 	-9.38908e-136
0.5999 	-3.50351e-135
0.6006 	-6.6356e-136
0.6013 	-1.38204e-136
0.602 	-1.37554e-136
0.6027 	-1.36904e-136
0.6034 	-1.36254e-136
0.6041 	-1.35604e-136
0.6048 	-2.78433e-136
0.6055 	-1.07328e-136
0.6062 	-2.55049e-137
0.6069 	-1.95734e-137
0.6076 	-1.94794e-137
0.6083 	-1.93855e-137
0.609 	-1.92915e-137
0.6097 	-1.91975e-137
0.6104 	-1.69082e-137
0.6111 	-5.25252e-138
0.6118 	-2.74439e-138
0.6125 	-2.73101e-138
0.6132 	-2.71763e-138
0.6139 	-2.70424e-138
0.6146 	-2.69086e-138
0.6153 	-2.60054e-138
0.616 	-9.64702e-139
0.6167 	-3.79272e-139
0.6174 	-3.77393e-139
0.6181 	-3.75515e-139
0.6188 	-3.73637e-139
0.6195 	-3.71758e-139
0.6202 	-7.38536e-139
0.6209 	-1.64942e-139
0.6216 	-5.16785e-140
0.6223 	-5.14186e-140
0.623 	-5.11588e-140
0.6237 	-5.0899e-140
0.6244 	-5.06392e-140
0.6251 	-1.76085e-139
0.6258 	-2.67923e-140
0.6265 	-6.94461e-141
0.6272 	-6.90918e-141
0.6279 	-6.87374e-141
0.6286 	-6.83831e-141
0.6293 	-6.80288e-141
0.63 	-3.34052e-140
0.6307 	-4.18167e-141
0.6314 	-9.20628e-142
0.6321 	-9.15862e-142
0.6328 	-9.11096e-142
0.6335 	-9.0633e-142
0.6342 	-9.01564e-142
0.6349 	-3.04108e-141
0.6356 	-6.31531e-142
0.6363 	-1.20429e-142
0.637 	-1.19796e-142
0.6377 	-1.19164e-142
0.6384 	-1.18532e-142
0.6391 	-1.17899e-142
0.6398 	-2.23257e-142
0.6405 	-9.27201e-143
0.6412 	-2.06877e-143
0.6419 	-1.54658e-143
0.6426 	-1.5383e-143
0.6433 	-1.53002e-143
0.644 	-1.52174e-143
0.6447 	-1.51346e-143
0.6454 	-1.32776e-143
0.6461 	-3.97329e-144
0.6468 	-1.97113e-144
0.6475 	-1.96043e-144
0.6482 	-1.94973e-144
0.6489 	-1.93903e-144
0.6496 	-1.92833e-144
0.6503 	-1.85902e-144
0.651 	-6.72645e-145
0.6517 	-2.48064e-145
0.6524 	-2.46699e-145
0.6531 	-2.45334e-145
0.6538 	-2.43969e-145
0.6545 	-2.42604e-145
0.6552 	-4.45318e-145
0.6559 	-1.05599e-145
0.6566 	-3.08323e-146
0.6573 	-3.06603e-146
0.658 	-3.04883e-146
0.6587 	-3.03163e-146
0.6594 	-3.01444e-146
0.6601 	-9.46163e-146
0.6608 	-1.57311e-146
0.6615 	-3.78541e-147
0.6622 	-3.76401e-147
0.6629 	-3.74261e-147
0.6636 	-3.72121e-147
0.6643 	-3.69981e-147
0.665 	-1.62344e-146
0.6657 	-2.25158e-147
0.6664 	-4.59149e-148
0.6671 	-4.56518e-148
0.6678 	-4.53888e-148
0.6685 	-4.51257e-148
0.6692 	-4.48626e-148
0.6699 	-1.36571e-147
0.6706 	-3.11966e-148
0.6713 	-5.50275e-149
0.672 	-5.47079e-149
0.6727 	-5.43884e-149
0.6734 	-5.40689e-149
0.6741 	-5.37493e-149
0.6748 	-9.43272e-149
0.6755 	-4.20474e-149
0.6762 	-8.8828e-150
0.6769 	-6.47836e-150
0.6776 	-6.44001e-150
0.6783 	-6.40166e-150
0.679 	-6.36331e-150
0.6797 	-6.32495e-150
0.6804 	-5.53146e-150
0.6811 	-1.60339e-150
0.6818 	-7.58094e-151
0.6825 	-7.53544e-151
0.6832 	-7.48994e-151
0.6839 	-7.44444e-151
0.6846 	-7.39894e-151
0.6853 	-7.11941e-151
0.686 	-2.522e-151
0.6867 	-8.76656e-152
0.6874 	-8.71321e-152
0.6881 	-8.65986e-152
0.6888 	-8.60651e-152
0.6895 	-8.55316e-152
0.6902 	-1.46099e-151
0.6909 	-3.66348e-152
0.6916 	-1.00181e-152
0.6923 	-9.9563e-153
0.693 	-9.89447e-153
0.6937 	-9.83264e-153
0.6944 	-9.77081e-153
0.6951 	-2.77394e-152
0.6958 	-5.51627e-153
0.6965 	-2.00427e-153
0.6972 	-1.99791e-153
0.6979 	-1.99155e-153
0.6986 	-1.98519e-153
0.6993 	-1.97883e-153
0.7 	-7.79517e-153
