0 	1
0.0007 	1
0.0014 	1
0.0021 	1
0.0028 	1
0.0035 	1
0.0042 	1
0.0049 	1
0.0056 	1
0.0063 	1
0.007 	1
0.0077 	1
0.0084 	1
0.0091 	1
0.0098 	1
0.0105 	1
0.0112 	1
0.0119 	1
0.0126 	1
0.0133 	1
0.014 	1
0.0147 	1
0.0154 	1
0.0161 	1
0.0168 	1
0.0175 	1
0.0182 	1
0.0189 	1
0.0196 	1
0.0203 	1
0.021 	1
0.0217 	1
0.0224 	1
0.0231 	1
0.0238 	1
0.0245 	1
0.0252 	1
0.0259 	1
0.0266 	1
0.0273 	1
0.028 	1
0.0287 	1
0.0294 	1
0.0301 	1
0.0308 	1
0.0315 	1
0.0322 	1
0.0329 	1
0.0336 	1
0.0343 	1
0.035 	1
0.0357 	1
0.0364 	1
0.0371 	1
0.0378 	1
0.0385 	1
0.0392 	1
0.0399 	1
0.0406 	1
0.0413 	1
0.042 	1
0.0427 	1
0.0434 	1
0.0441 	1
0.0448 	1
0.0455 	1
0.0462 	1
0.0469 	1
0.0476 	1
0.0483 	1
0.049 	1
0.0497 	1
0.0504 	1
0.0511 	1
0.0518 	1
0.0525 	1
0.0532 	1
0.0539 	1
0.0546 	1
0.0553 	1
0.056 	1
0.0567 	1
0.0574 	1
0.0581 	1
0.0588 	1
0.0595 	1
0.0602 	1
0.0609 	1
0.0616 	1
0.0623 	1
0.063 	1
0.0637 	1
0.0644 	1
0.0651 	1
0.0658 	1
0.0665 	1
0.0672 	1
0.0679 	1
0.0686 	1
0.0693 	1
0.07 	1
0.0707 	1
0.0714 	1
0.0721 	1
0.0728 	1
0.0735 	1
0.0742 	1
0.0749 	1
0.0756 	1
0.0763 	1
0.077 	1
0.0777 	1
0.0784 	1
0.0791 	1
0.0798 	1
0.0805 	1
0.0812 	1
0.0819 	1
0.0826 	1
0.0833 	1
0.084 	1
0.0847 	1
0.0854 	1
0.0861 	1
0.0868 	1
0.0875 	1
0.0882 	1
0.0889 	1
0.0896 	1
0.0903 	1
0.091 	1
0.0917 	1
0.0924 	1
0.0931 	1
0.0938 	1
0.0945 	1
0.0952 	1
0.0959 	1
0.0966 	1
0.0973 	1
0.098 	1
0.0987 	1
0.0994 	1
0.1001 	1
0.1008 	1
0.1015 	1
0.1022 	1
0.1029 	1
0.1036 	1
0.1043 	1
0.105 	1
0.1057 	1
0.1064 	1
0.1071 	1
0.1078 	1
0.1085 	1
0.1092 	1
0.1099 	1
0.1106 	1
0.1113 	1
0.112 	1
0.1127 	1
0.1134 	1
0.1141 	1
0.1148 	1
0.1155 	1
0.1162 	1
0.1169 	1
0.1176 	1
0.1183 	1
0.119 	1
0.1197 	1
0.1204 	1
0.1211 	1
0.1218 	1
0.1225 	1
0.1232 	1
0.1239 	1
0.1246 	1
0.1253 	1
0.126 	1
0.1267 	1
0.1274 	1
0.1281 	1
0.1288 	1
0.1295 	1
0.1302 	1
0.1309 	1
0.1316 	1
0.1323 	1
0.133 	1
0.1337 	1
0.1344 	1
0.1351 	1
0.1358 	1
0.1365 	1
0.1372 	1
0.1379 	1
0.1386 	1
0.1393 	1
0.14 	1
0.1407 	1
0.1414 	1
0.1421 	1
0.1428 	1
0.1435 	1
0.1442 	1
0.1449 	1
0.1456 	1
0.1463 	1
0.147 	1
0.1477 	1
0.1484 	1
0.1491 	1
0.1498 	1
0.1505 	1
0.1512 	1
0.1519 	1
0.1526 	1
0.1533 	1
0.154 	1
0.1547 	1
0.1554 	1
0.1561 	1
0.1568 	1
0.1575 	1
0.1582 	1
0.1589 	1
0.1596 	1
0.1603 	1
0.161 	1
0.1617 	1
0.1624 	1
0.1631 	1
0.1638 	1
0.1645 	1
0.1652 	1
0.1659 	1
0.1666 	1
0.1673 	1
0.168 	1
0.1687 	1
0.1694 	1
0.1701 	1
0.1708 	1
0.1715 	1
0.1722 	1
0.1729 	1
0.1736 	1
0.1743 	1
0.175 	1
0.1757 	1
0.1764 	1
0.1771 	1
0.1778 	1
0.1785 	1
0.1792 	1
0.1799 	1
0.1806 	1
0.1813 	1
0.182 	1
0.1827 	1
0.1834 	1
0.1841 	1
0.1848 	1
0.1855 	1
0.1862 	1
0.1869 	1
0.1876 	1
0.1883 	1
0.189 	1
0.1897 	1
0.1904 	1
0.1911 	1
0.1918 	1
0.1925 	1
0.1932 	1
0.1939 	1
0.1946 	1
0.1953 	1
0.196 	1
0.1967 	1
0.1974 	1
0.1981 	1
0.1988 	1
0.1995 	0.999999
0.2002 	0.999999
0.2009 	0.999999
0.2016 	0.999993
0.2023 	0.999982
0.203 	0.999973
0.2037 	0.999968
0.2044 	0.999952
0.2051 	0.999936
0.2058 	0.999923
0.2065 	0.999856
0.2072 	0.999694
0.2079 	0.999548
0.2086 	0.999463
0.2093 	0.999261
0.21 	0.999027
0.2107 	0.998838
0.2114 	0.99791
0.2121 	0.994269
0.2128 	0.990764
0.2135 	0.988999
0.2142 	0.985015
0.2149 	0.979798
0.2156 	0.975543
0.2163 	0.969071
0.217 	0.931713
0.2177 	0.894355
0.2184 	0.866661
0.2191 	0.82306
0.2198 	0.762828
0.2205 	0.702573
0.2212 	0.642309
0.2219 	0.579926
0.2226 	0.517381
0.2233 	0.455997
0.224 	0.394109
0.2247 	0.330755
0.2254 	0.265643
0.2261 	0.199212
0.2268 	0.159531
0.2275 	0.127145
0.2282 	0.0881013
0.2289 	0.0527124
0.2296 	0.0440723
0.2303 	0.0345184
0.231 	0.023746
0.2317 	0.0174549
0.2324 	0.0136533
0.2331 	0.00816036
0.2338 	0.00150555
0.2345 	0.00132324
0.2352 	0.00109352
0.2359 	0.000745306
0.2366 	0.000525715
0.2373 	0.000434749
0.238 	0.000283318
0.2387 	2.57281e-05
0.2394 	6.99548e-06
0.2401 	6.40366e-06
0.2408 	4.41722e-06
0.2415 	3.00758e-06
0.2422 	2.63618e-06
0.2429 	1.98926e-06
0.2436 	3.71594e-07
0.2443 	2.28062e-08
0.245 	2.00752e-08
0.2457 	1.47155e-08
0.2464 	1.01587e-08
0.2471 	8.54548e-09
0.2478 	6.74758e-09
0.2485 	2.80491e-09
0.2492 	1.26988e-09
0.2499 	1.07242e-09
0.2506 	8.33178e-10
0.2513 	5.97557e-10
0.252 	4.99444e-10
0.2527 	4.01331e-10
0.2534 	2.37505e-10
0.2541 	1.43231e-10
0.2548 	1.2289e-10
0.2555 	9.96984e-11
0.2562 	7.53672e-11
0.2569 	6.36672e-11
0.2576 	5.29389e-11
0.2583 	3.73605e-11
0.259 	2.53806e-11
0.2597 	2.21191e-11
0.2604 	1.85243e-11
0.2611 	1.46797e-11
0.2618 	1.23912e-11
0.2625 	1.0527e-11
0.2632 	8.0996e-12
0.2639 	5.79639e-12
0.2646 	5.04157e-12
0.2653 	4.24384e-12
0.266 	3.38889e-12
0.2667 	2.80319e-12
0.2674 	2.36706e-12
0.2681 	1.84751e-12
0.2688 	1.27823e-12
0.2695 	1.09514e-12
0.2702 	9.06136e-13
0.2709 	7.02326e-13
0.2716 	5.51481e-13
0.2723 	4.53602e-13
0.273 	3.41694e-13
0.2737 	2.05949e-13
0.2744 	1.67832e-13
0.2751 	1.36624e-13
0.2758 	1.01813e-13
0.2765 	7.41338e-14
0.2772 	5.92893e-14
0.2779 	4.27347e-14
0.2786 	2.04148e-14
0.2793 	1.36685e-14
0.28 	1.11694e-14
0.2807 	8.13689e-15
0.2814 	5.50948e-15
0.2821 	4.36736e-15
0.2828 	3.15457e-15
0.2835 	1.20072e-15
0.2842 	4.53472e-16
0.2849 	3.76561e-16
0.2856 	2.76381e-16
0.2863 	1.77257e-16
0.287 	1.42259e-16
0.2877 	1.07262e-16
0.2884 	3.98362e-17
0.2891 	4.82151e-18
0.2898 	4.09146e-18
0.2905 	3.07837e-18
0.2912 	1.95204e-18
0.2919 	1.55099e-18
0.2926 	1.20572e-18
0.2933 	5.13324e-19
0.294 	1.30749e-20
0.2947 	1.12979e-20
0.2954 	8.77732e-21
0.2961 	5.69911e-21
0.2968 	4.34396e-21
0.2975 	3.45873e-21
0.2982 	1.71806e-21
0.2989 	7.06329e-24
0.2996 	6.17764e-24
0.3003 	4.95938e-24
0.301 	3.29768e-24
0.3017 	2.40878e-24
0.3024 	1.94922e-24
0.3031 	1.10818e-24
0.3038 	6.67971e-28
0.3045 	5.85301e-28
0.3052 	4.82212e-28
0.3059 	3.28074e-28
0.3066 	2.29608e-28
0.3073 	1.86815e-28
0.308 	1.18399e-28
0.3087 	7.94716e-30
0.3094 	5.09866e-32
0.3101 	4.28332e-32
0.3108 	2.97562e-32
0.3115 	2.00274e-32
0.3122 	1.63254e-32
0.3129 	1.12967e-32
0.3136 	1.99752e-33
0.3143 	4.34501e-36
0.315 	3.71507e-36
0.3157 	2.62968e-36
0.3164 	1.70966e-36
0.3171 	1.39603e-36
0.3178 	1.03929e-36
0.3185 	2.73807e-37
0.3192 	3.83339e-40
0.3199 	3.26356e-40
0.3206 	2.38722e-40
0.3213 	1.50615e-40
0.322 	1.22744e-40
0.3227 	9.48735e-41
0.3234 	3.22134e-41
0.3241 	3.69992e-44
0.3248 	3.12927e-44
0.3255 	2.35088e-44
0.3262 	1.48941e-44
0.3269 	1.17411e-44
0.3276 	9.00823e-45
0.3283 	3.75557e-45
0.329 	3.88573e-48
0.3297 	3.27016e-48
0.3304 	2.50909e-48
0.3311 	1.63888e-48
0.3318 	1.22459e-48
0.3325 	9.34641e-49
0.3332 	4.52948e-49
0.3339 	4.19592e-52
0.3346 	3.52646e-52
0.3353 	2.75483e-52
0.336 	1.847e-52
0.3367 	1.32184e-52
0.3374 	1.00927e-52
0.3381 	5.49375e-53
0.3388 	4.41796e-56
0.3395 	3.71832e-56
0.3402 	2.95346e-56
0.3409 	2.02554e-56
0.3416 	1.39871e-56
0.3423 	1.07298e-56
0.343 	6.41636e-57
0.3437 	4.31831e-58
0.3444 	3.72779e-60
0.3451 	3.008e-60
0.3458 	2.10463e-60
0.3465 	1.40923e-60
0.3472 	1.08815e-60
0.3479 	7.03682e-61
0.3486 	1.24511e-61
0.3493 	3.52698e-64
0.35 	2.8882e-64
0.3507 	2.05738e-64
0.3514 	1.34066e-64
0.3521 	1.04235e-64
0.3528 	7.19914e-65
0.3535 	1.8971e-65
0.3542 	3.15818e-68
0.3549 	2.59794e-68
0.3556 	1.89778e-68
0.3563 	1.20723e-68
0.357 	9.44697e-69
0.3577 	6.82165e-69
0.3584 	2.30054e-69
0.3591 	2.69451e-72
0.3598 	2.22582e-72
0.3605 	1.66314e-72
0.3612 	1.06286e-72
0.3619 	8.15234e-73
0.3626 	5.9473e-73
0.3633 	2.43992e-73
0.364 	2.17548e-76
0.3647 	1.71322e-76
0.3654 	1.29079e-76
0.3661 	8.98232e-77
0.3668 	6.74312e-77
0.3675 	4.96383e-77
0.3682 	2.35575e-77
0.3689 	-4.31304e-78
0.3696 	-2.43882e-77
0.3703 	-2.72611e-77
0.371 	-7.19764e-78
0.3717 	-4.20311e-80
0.3724 	-5.73797e-80
0.3731 	-6.62398e-80
0.3738 	-1.83102e-78
0.3745 	-2.64952e-77
0.3752 	-3.70664e-77
0.3759 	-1.24052e-77
0.3766 	-7.45313e-80
0.3773 	-7.4424e-80
0.378 	-7.44586e-80
0.3787 	-7.47096e-80
0.3794 	-1.88857e-77
0.3801 	-3.33555e-77
0.3808 	-1.30959e-77
0.3815 	-6.93484e-80
0.3822 	-6.23308e-80
0.3829 	-5.69559e-80
0.3836 	-5.63987e-80
0.3843 	-1.04669e-77
0.385 	-2.37169e-77
0.3857 	-1.04643e-77
0.3864 	-5.00919e-80
0.3871 	-4.30034e-80
0.3878 	-3.66407e-80
0.3885 	-3.59934e-80
0.3892 	-4.75242e-78
0.3899 	-1.20894e-77
0.3906 	-6.84685e-78
0.3913 	-3.15275e-80
0.392 	-2.6313e-80
0.3927 	-2.10985e-80
0.3934 	-2.047e-80
0.3941 	-1.79582e-78
0.3948 	-5.347e-78
0.3955 	-3.82402e-78
0.3962 	-2.71388e-79
0.3969 	-1.4561e-80
0.3976 	-1.12514e-80
0.3983 	-1.04283e-80
0.399 	-5.58971e-79
0.3997 	-2.09545e-78
0.4004 	-1.87547e-78
0.4011 	-3.38152e-79
0.4018 	-7.28417e-81
0.4025 	-5.4451e-81
0.4032 	-4.75287e-81
0.4039 	-1.34294e-79
0.4046 	-7.39448e-79
0.4053 	-8.25717e-79
0.406 	-2.20141e-79
0.4067 	-3.29114e-81
0.4074 	-2.39865e-81
0.4081 	-1.94846e-81
0.4088 	-1.75995e-80
0.4095 	-2.37788e-79
0.4102 	-3.32101e-79
0.4109 	-1.11727e-79
0.4116 	-1.34929e-81
0.4123 	-9.67841e-82
0.413 	-7.26472e-82
0.4137 	-6.91286e-82
0.4144 	-7.02048e-80
0.4151 	-1.23668e-79
0.4158 	-4.87319e-80
0.4165 	-5.06523e-82
0.4172 	-3.60624e-82
0.4179 	-2.49548e-82
0.4186 	-2.36104e-82
0.4193 	-1.90777e-80
0.42 	-4.30617e-80
0.4207 	-1.90518e-80
0.4214 	-1.76007e-82
0.4221 	-1.25177e-82
0.4228 	-7.99416e-83
0.4235 	-7.52532e-83
0.4242 	-4.75531e-81
0.4249 	-1.2038e-80
0.4256 	-6.82878e-81
0.4263 	-5.72009e-83
0.427 	-4.08141e-83
0.4277 	-2.44273e-83
0.4284 	-2.26097e-83
0.4291 	-1.07408e-81
0.4298 	-3.17852e-81
0.4305 	-2.27475e-81
0.4312 	-1.67687e-82
0.4319 	-1.25891e-83
0.4326 	-7.63884e-84
0.4333 	-6.4523e-84
0.434 	-2.13422e-82
0.4347 	-7.93762e-82
0.4354 	-7.10423e-82
0.4361 	-1.29326e-82
0.4368 	-3.69409e-84
0.4375 	-2.27966e-84
0.4382 	-1.75857e-84
0.4389 	-3.4451e-83
0.4396 	-1.87497e-82
0.4403 	-2.09272e-82
0.441 	-5.60166e-83
0.4417 	-1.03552e-84
0.4424 	-6.50756e-85
0.4431 	-4.59505e-85
0.4438 	-3.18763e-84
0.4445 	-4.18477e-83
0.4452 	-5.84007e-83
0.4459 	-1.96856e-83
0.4466 	-2.78138e-85
0.4473 	-1.78042e-85
0.448 	-1.15418e-85
0.4487 	-1.06054e-85
0.4494 	-8.80307e-84
0.4501 	-1.54916e-83
0.4508 	-6.11103e-84
0.4515 	-7.17412e-86
0.4522 	-4.67616e-86
0.4529 	-2.79236e-86
0.4536 	-2.55791e-86
0.4543 	-1.73738e-84
0.455 	-3.91668e-84
0.4557 	-1.73402e-84
0.4564 	-1.77997e-86
0.4571 	-1.18063e-86
0.4578 	-6.51687e-87
0.4585 	-5.95253e-87
0.4592 	-3.19103e-85
0.4599 	-8.06539e-85
0.4606 	-4.57699e-85
0.4613 	-4.25381e-87
0.462 	-2.86895e-87
0.4627 	-1.48409e-87
0.4634 	-1.33819e-87
0.4641 	-5.37295e-86
0.4648 	-1.58643e-85
0.4655 	-1.13554e-85
0.4662 	-8.46455e-87
0.4669 	-6.71724e-88
0.4676 	-3.63123e-88
0.4683 	-2.90936e-88
0.469 	-8.04017e-87
0.4697 	-2.97906e-86
0.4704 	-2.66616e-86
0.4711 	-4.87285e-87
0.4718 	-1.51693e-88
0.4725 	-8.52936e-89
0.4732 	-6.12306e-89
0.4739 	-9.87846e-88
0.4746 	-5.33519e-87
0.4753 	-5.9528e-87
0.476 	-1.59743e-87
0.4767 	-3.3073e-89
0.4774 	-1.92635e-89
0.4781 	-1.24859e-89
0.4788 	-7.11518e-89
0.4795 	-9.09593e-88
0.4802 	-1.26846e-87
0.4809 	-4.28391e-88
0.4816 	-6.96828e-90
0.4823 	-4.1894e-90
0.483 	-2.46895e-90
0.4837 	-2.20311e-90
0.4844 	-1.47191e-88
0.4851 	-2.5869e-88
0.4858 	-1.02208e-88
0.4865 	-1.42009e-90
0.4872 	-8.78534e-91
0.4879 	-4.73796e-91
0.4886 	-4.2183e-91
0.4893 	-2.24979e-89
0.49 	-5.06088e-89
0.4907 	-2.2437e-89
0.4914 	-2.80173e-91
0.4921 	-1.77872e-91
0.4928 	-8.83042e-92
0.4935 	-7.84585e-92
0.4942 	-3.22143e-90
0.4949 	-8.11596e-90
0.4956 	-4.61024e-90
0.4963 	-5.35576e-92
0.497 	-3.48103e-92
0.4977 	-1.60631e-92
0.4984 	-1.41856e-92
0.4991 	-4.25734e-91
0.4998 	-1.25064e-90
0.5005 	-8.95672e-91
0.5012 	-6.87543e-92
0.5019 	-6.59235e-93
0.5026 	-3.25687e-93
0.5033 	-2.4949e-93
0.504 	-5.03835e-92
0.5047 	-1.85053e-91
0.5054 	-1.65614e-91
0.5061 	-3.05949e-92
0.5068 	-1.20933e-93
0.5075 	-6.32747e-94
0.5082 	-4.27096e-94
0.5089 	-4.94979e-93
0.5096 	-2.62609e-92
0.5103 	-2.928e-92
0.511 	-7.90964e-93
0.5117 	-2.15098e-94
0.5124 	-1.18191e-94
0.5131 	-7.12075e-95
0.5138 	-2.96109e-94
0.5145 	-3.56736e-93
0.5152 	-4.96655e-93
0.5159 	-1.68555e-93
0.5166 	-3.71275e-95
0.5173 	-2.12813e-95
0.518 	-1.1569e-95
0.5187 	-1.00219e-95
0.5194 	-4.62492e-94
0.5201 	-8.10409e-94
0.5208 	-3.21453e-94
0.5215 	-6.22415e-96
0.5222 	-3.70162e-96
0.5229 	-1.8326e-96
0.5236 	-1.58562e-96
0.5243 	-5.69509e-95
0.525 	-1.27483e-94
0.5257 	-5.67075e-95
0.5264 	-1.0142e-96
0.5271 	-6.23042e-97
0.5278 	-2.83178e-97
0.5285 	-2.44767e-97
0.5292 	-6.60821e-96
0.5299 	-1.65282e-95
0.5306 	-9.41078e-96
0.5313 	-1.60742e-97
0.532 	-1.01627e-97
0.5327 	-4.27045e-98
0.5334 	-3.68821e-98
0.5341 	-7.1239e-97
0.5348 	-2.06923e-96
0.5355 	-1.48381e-96
0.5362 	-1.21482e-97
0.5369 	-1.60846e-98
0.5376 	-7.37294e-99
0.5383 	-5.42716e-99
0.539 	-6.93713e-98
0.5397 	-2.49964e-97
0.5404 	-2.23712e-97
0.5411 	-4.23253e-98
0.5418 	-2.47283e-99
0.5425 	-1.22032e-99
0.5432 	-7.80194e-100
0.5439 	-5.69784e-99
0.5446 	-2.91021e-98
0.5453 	-3.23975e-98
0.546 	-8.88127e-99
0.5467 	-3.69635e-100
0.5474 	-1.9387e-100
0.5481 	-1.09615e-100
0.5488 	-3.0446e-100
0.5495 	-3.25954e-99
0.5502 	-4.5216e-99
0.5509 	-1.55107e-99
0.5516 	-5.37664e-101
0.5523 	-2.9682e-101
0.553 	-1.50568e-101
0.5537 	-1.26528e-101
0.5544 	-3.50234e-100
0.5551 	-6.09747e-100
0.5558 	-2.43933e-100
0.5565 	-7.61614e-102
0.5572 	-4.39238e-102
0.5579 	-2.02273e-102
0.5586 	-1.69971e-102
0.5593 	-3.59431e-101
0.56 	-7.96137e-101
0.5607 	-3.56694e-101
0.5614 	-1.05133e-102
0.5621 	-6.29652e-103
0.5628 	-2.65843e-103
0.5635 	-2.23418e-103
0.5642 	-3.49795e-102
0.5649 	-8.61523e-102
0.5656 	-4.92983e-102
0.5663 	-1.4151e-103
0.567 	-8.75916e-104
0.5677 	-3.41922e-104
0.5684 	-2.87437e-104
0.5691 	-3.18809e-103
0.5698 	-9.04387e-103
0.5705 	-6.50258e-103
0.5712 	-6.0245e-104
0.5719 	-1.18414e-104
0.5726 	-5.09954e-105
0.5733 	-3.62049e-105
0.574 	-2.65646e-104
0.5747 	-9.204e-104
0.5754 	-8.23743e-104
0.5761 	-1.63528e-104
0.5768 	-1.55752e-105
0.5775 	-7.32922e-106
0.5782 	-4.46584e-106
0.5789 	-1.91427e-105
0.5796 	-9.07196e-105
0.5803 	-1.00663e-104
0.581 	-2.84278e-105
0.5817 	-1.99519e-106
0.5824 	-1.00834e-106
0.5831 	-5.39586e-107
0.5838 	-9.92355e-107
0.5845 	-8.64699e-106
0.5852 	-1.19054e-105
0.5859 	-4.17307e-106
0.5866 	-2.49129e-107
0.5873 	-1.33536e-107
0.588 	-6.38769e-108
0.5887 	-5.1953e-108
0.5894 	-7.95164e-107
0.5901 	-1.36624e-106
0.5908 	-5.55967e-107
0.5915 	-3.03444e-108
0.5922 	-1.70887e-108
0.5929 	-7.4106e-109
0.5936 	-6.03497e-109
0.5943 	-7.02925e-108
0.595 	-1.5245e-107
0.5957 	-6.92769e-108
0.5964 	-3.60771e-109
0.5971 	-2.11911e-109
0.5978 	-8.42732e-110
0.5985 	-6.8726e-110
0.5992 	-5.93897e-109
0.5999 	-1.41947e-108
0.6006 	-8.2012e-109
0.6013 	-4.18928e-110
0.602 	-2.55183e-110
0.6027 	-9.39616e-111
0.6034 	-7.67437e-111
0.6041 	-4.74915e-110
0.6048 	-1.28847e-109
0.6055 	-9.31062e-110
0.6062 	-1.05262e-110
0.6069 	-2.98901e-111
0.6076 	-1.22425e-111
0.6083 	-8.4049e-112
0.609 	-3.53015e-111
0.6097 	-1.13976e-110
0.6104 	-1.01992e-110
0.6111 	-2.20129e-111
0.6118 	-3.41007e-112
0.6125 	-1.54608e-112
0.6132 	-9.02993e-113
0.6139 	-2.34762e-112
0.6146 	-9.81851e-112
0.6153 	-1.08274e-111
0.616 	-3.22025e-112
0.6167 	-3.79353e-113
0.6174 	-1.86356e-113
0.6181 	-9.51899e-114
0.6188 	-1.25708e-113
0.6195 	-8.22799e-113
0.6202 	-1.11756e-112
0.6209 	-4.06511e-113
0.6216 	-4.11889e-114
0.6223 	-2.1595e-114
0.623 	-9.84793e-115
0.6237 	-7.72307e-115
0.6244 	-6.69577e-114
0.6251 	-1.12439e-113
0.6258 	-4.70811e-114
0.6265 	-4.36845e-115
0.6272 	-2.41743e-115
0.6279 	-1.00008e-115
0.6286 	-7.86669e-116
0.6293 	-5.27686e-115
0.63 	-1.10498e-114
0.6307 	-5.13842e-115
0.6314 	-4.52891e-116
0.6321 	-2.6231e-116
0.6328 	-9.97138e-117
0.6335 	-7.8678e-117
0.6342 	-4.00976e-116
0.6349 	-9.14015e-116
0.6356 	-5.36069e-116
0.6363 	-4.59253e-117
0.637 	-2.76577e-117
0.6377 	-9.76304e-118
0.6384 	-7.72772e-118
0.6391 	-2.91671e-117
0.6398 	-7.40811e-117
0.6405 	-5.39221e-117
0.6412 	-7.73405e-118
0.6419 	-2.83913e-118
0.6426 	-1.12058e-118
0.6433 	-7.45525e-119
0.644 	-2.00537e-118
0.6447 	-5.88096e-118
0.6454 	-5.25935e-118
0.6461 	-1.26483e-118
0.6468 	-2.84165e-119
0.6475 	-1.2545e-119
0.6482 	-7.06571e-120
0.6489 	-1.27154e-119
0.6496 	-4.56946e-119
0.6503 	-4.99387e-119
0.651 	-1.58693e-119
0.6517 	-2.77644e-120
0.6524 	-1.3372e-120
0.6531 	-6.57955e-121
0.6538 	-7.02238e-121
0.6545 	-3.47094e-120
0.6552 	-4.62948e-120
0.6559 	-1.7626e-120
0.6566 	-2.65072e-121
0.6573 	-1.36901e-121
0.658 	-6.02066e-122
0.6587 	-4.53268e-122
0.6594 	-2.57284e-121
0.6601 	-4.19905e-121
0.6608 	-1.81812e-121
0.6615 	-2.47485e-122
0.6622 	-1.3537e-122
0.6629 	-5.41443e-123
0.6636 	-4.09824e-123
0.6643 	-1.856e-122
0.665 	-3.73249e-122
0.6657 	-1.78048e-122
0.6664 	-2.26117e-123
0.6671 	-1.29777e-123
0.6678 	-4.78597e-124
0.6685 	-3.64185e-124
0.6692 	-1.29761e-123
0.6699 	-2.81317e-123
0.6706 	-1.67532e-123
0.6713 	-2.02287e-124
0.672 	-1.20949e-124
0.6727 	-4.15849e-125
0.6734 	-3.18101e-125
0.6741 	-8.73592e-125
0.6748 	-2.08232e-124
0.6755 	-1.52559e-124
0.6762 	-2.62668e-125
0.6769 	-1.09802e-125
0.6776 	-4.23232e-126
0.6783 	-2.73123e-126
0.679 	-5.6033e-126
0.6797 	-1.51226e-125
0.6804 	-1.35071e-125
0.6811 	-3.54043e-126
0.6818 	-9.72475e-127
0.6825 	-4.22348e-127
0.6832 	-2.30529e-127
0.6839 	-3.35906e-127
0.6846 	-1.07614e-126
0.6853 	-1.16633e-126
0.686 	-3.89795e-127
0.6867 	-8.41254e-128
0.6874 	-4.0047e-128
0.6881 	-1.91288e-128
0.6888 	-1.80807e-128
0.6895 	-7.49059e-128
0.6902 	-9.84322e-128
0.6909 	-3.8711e-128
0.6916 	-7.11477e-129
0.6923 	-3.64355e-129
0.693 	-1.56049e-129
0.6937 	-1.12162e-129
0.6944 	-5.08825e-129
0.6951 	-8.13117e-129
0.6958 	-3.59852e-129
0.6965 	-5.95511e-130
0.6972 	-3.45841e-130
0.6979 	-1.64772e-130
0.6986 	-1.3281e-130
0.6993 	-6.0979e-130
0.7 	-1.22557e-129
