0 	1
0.0007 	1
0.0014 	1
0.0021 	1
0.0028 	1
0.0035 	1
0.0042 	1
0.0049 	1
0.0056 	1
0.0063 	1
0.007 	1
0.0077 	1
0.0084 	1
0.0091 	1
0.0098 	1
0.0105 	1
0.0112 	1
0.0119 	1
0.0126 	1
0.0133 	1
0.014 	1
0.0147 	1
0.0154 	1
0.0161 	1
0.0168 	1
0.0175 	1
0.0182 	1
0.0189 	1
0.0196 	1
0.0203 	1
0.021 	1
0.0217 	1
0.0224 	1
0.0231 	1
0.0238 	1
0.0245 	1
0.0252 	1
0.0259 	1
0.0266 	1
0.0273 	1
0.028 	1
0.0287 	1
0.0294 	1
0.0301 	1
0.0308 	1
0.0315 	1
0.0322 	1
0.0329 	1
0.0336 	1
0.0343 	1
0.035 	1
0.0357 	1
0.0364 	1
0.0371 	1
0.0378 	1
0.0385 	1
0.0392 	1
0.0399 	1
0.0406 	1
0.0413 	1
0.042 	1
0.0427 	1
0.0434 	1
0.0441 	1
0.0448 	1
0.0455 	1
0.0462 	1
0.0469 	1
0.0476 	1
0.0483 	1
0.049 	1
0.0497 	1
0.0504 	1
0.0511 	1
0.0518 	1
0.0525 	1
0.0532 	1
0.0539 	1
0.0546 	1
0.0553 	1
0.056 	1
0.0567 	1
0.0574 	1
0.0581 	1
0.0588 	1
0.0595 	1
0.0602 	1
0.0609 	1
0.0616 	1
0.0623 	1
0.063 	1
0.0637 	1
0.0644 	1
0.0651 	1
0.0658 	1
0.0665 	1
0.0672 	1
0.0679 	1
0.0686 	1
0.0693 	1
0.07 	1
0.0707 	1
0.0714 	1
0.0721 	1
0.0728 	1
0.0735 	1
0.0742 	1
0.0749 	1
0.0756 	1
0.0763 	1
0.077 	1
0.0777 	1
0.0784 	1
0.0791 	1
0.0798 	1
0.0805 	1
0.0812 	1
0.0819 	1
0.0826 	1
0.0833 	1
0.084 	1
0.0847 	1
0.0854 	1
0.0861 	1
0.0868 	1
0.0875 	1
0.0882 	1
0.0889 	1
0.0896 	1
0.0903 	1
0.091 	1
0.0917 	1
0.0924 	1
0.0931 	1
0.0938 	1
0.0945 	1
0.0952 	1
0.0959 	1
0.0966 	1
0.0973 	1
0.098 	1
0.0987 	1
0.0994 	1
0.1001 	1
0.1008 	1
0.1015 	1
0.1022 	1
0.1029 	1
0.1036 	1
0.1043 	1
0.105 	1
0.1057 	1
0.1064 	1
0.1071 	1
0.1078 	1
0.1085 	1
0.1092 	1
0.1099 	1
0.1106 	1
0.1113 	1
0.112 	1
0.1127 	1
0.1134 	1
0.1141 	1
0.1148 	1
0.1155 	1
0.1162 	1
0.1169 	1
0.1176 	1
0.1183 	1
0.119 	1
0.1197 	1
0.1204 	1
0.1211 	1
0.1218 	1
0.1225 	1
0.1232 	1
0.1239 	1
0.1246 	1
0.1253 	1
0.126 	1
0.1267 	1
0.1274 	1
0.1281 	1
0.1288 	1
0.1295 	1
0.1302 	1
0.1309 	1
0.1316 	1
0.1323 	1
0.133 	1
0.1337 	1
0.1344 	1
0.1351 	1
0.1358 	1
0.1365 	1
0.1372 	1
0.1379 	1
0.1386 	1
0.1393 	1
0.14 	1
0.1407 	1
0.1414 	1
0.1421 	1
0.1428 	1
0.1435 	1
0.1442 	1
0.1449 	1
0.1456 	1
0.1463 	1
0.147 	1
0.1477 	1
0.1484 	1
0.1491 	1
0.1498 	1
0.1505 	1
0.1512 	1
0.1519 	1
0.1526 	1
0.1533 	1
0.154 	1
0.1547 	1
0.1554 	1
0.1561 	1
0.1568 	1
0.1575 	1
0.1582 	1
0.1589 	1
0.1596 	1
0.1603 	1
0.161 	1
0.1617 	1
0.1624 	1
0.1631 	1
0.1638 	1
0.1645 	1
0.1652 	1
0.1659 	1
0.1666 	1
0.1673 	1
0.168 	1
0.1687 	1
0.1694 	1
0.1701 	1
0.1708 	1
0.1715 	1
0.1722 	1
0.1729 	1
0.1736 	1
0.1743 	1
0.175 	1
0.1757 	1
0.1764 	1
0.1771 	1
0.1778 	1
0.1785 	1
0.1792 	1
0.1799 	1
0.1806 	1
0.1813 	1
0.182 	1
0.1827 	1
0.1834 	1
0.1841 	1
0.1848 	1
0.1855 	1
0.1862 	1
0.1869 	1
0.1876 	1
0.1883 	1
0.189 	1
0.1897 	1
0.1904 	1
0.1911 	1
0.1918 	1
0.1925 	1
0.1932 	1
0.1939 	1
0.1946 	1
0.1953 	1
0.196 	1
0.1967 	1
0.1974 	1
0.1981 	1
0.1988 	1
0.1995 	1
0.2002 	1
0.2009 	1
0.2016 	1
0.2023 	1
0.203 	1
0.2037 	1
0.2044 	1
0.2051 	1
0.2058 	1
0.2065 	1
0.2072 	1
0.2079 	1
0.2086 	1
0.2093 	1
0.21 	1
0.2107 	1
0.2114 	1
0.2121 	1
0.2128 	1
0.2135 	1
0.2142 	1
0.2149 	1
0.2156 	1
0.2163 	1
0.217 	1
0.2177 	1
0.2184 	1
0.2191 	1
0.2198 	1
0.2205 	1
0.2212 	1
0.2219 	1
0.2226 	1
0.2233 	1
0.224 	0.999998
0.2247 	0.999997
0.2254 	0.999997
0.2261 	0.999998
0.2268 	0.999986
0.2275 	0.999971
0.2282 	0.99992
0.2289 	0.999662
0.2296 	0.99939
0.2303 	0.999301
0.231 	0.999452
0.2317 	0.99874
0.2324 	0.997546
0.2331 	0.996311
0.2338 	0.989469
0.2345 	0.981378
0.2352 	0.975463
0.2359 	0.974987
0.2366 	0.96653
0.2373 	0.950094
0.238 	0.933657
0.2387 	0.897865
0.2394 	0.844222
0.2401 	0.791663
0.2408 	0.752448
0.2415 	0.708249
0.2422 	0.655079
0.2429 	0.601909
0.2436 	0.543864
0.2443 	0.472975
0.245 	0.399095
0.2457 	0.318649
0.2464 	0.244176
0.2471 	0.191604
0.2478 	0.139032
0.2485 	0.0990811
0.2492 	0.0862423
0.2499 	0.0833583
0.2506 	0.0666588
0.2513 	0.0479011
0.252 	0.0323205
0.2527 	0.0167399
0.2534 	0.0065006
0.2541 	0.00489368
0.2548 	0.00499696
0.2555 	0.0042154
0.2562 	0.00307989
0.2569 	0.00209618
0.2576 	0.00112415
0.2583 	0.000389022
0.259 	0.000285117
0.2597 	0.000286153
0.2604 	0.00024946
0.2611 	0.00018447
0.2618 	0.000127522
0.2625 	7.27673e-05
0.2632 	2.47146e-05
0.2639 	1.69742e-05
0.2646 	1.72661e-05
0.2653 	1.57322e-05
0.266 	1.1764e-05
0.2667 	8.17339e-06
0.2674 	4.79259e-06
0.2681 	1.43012e-06
0.2688 	9.09972e-07
0.2695 	9.34679e-07
0.2702 	8.90243e-07
0.2709 	6.7295e-07
0.2716 	4.71051e-07
0.2723 	2.84546e-07
0.273 	9.80413e-08
0.2737 	4.74609e-08
0.2744 	4.69357e-08
0.2751 	4.67883e-08
0.2758 	3.5725e-08
0.2765 	2.51969e-08
0.2772 	1.56324e-08
0.2779 	6.06787e-09
0.2786 	2.38478e-09
0.2793 	2.16023e-09
0.28 	2.25654e-09
0.2807 	1.74183e-09
0.2814 	1.24122e-09
0.2821 	7.92286e-10
0.2828 	3.43351e-10
0.2835 	1.17557e-10
0.2842 	9.72704e-11
0.2849 	1.00438e-10
0.2856 	8.19741e-11
0.2863 	6.01082e-11
0.287 	4.08877e-11
0.2877 	2.16673e-11
0.2884 	9.44214e-12
0.2891 	7.74462e-12
0.2898 	7.46763e-12
0.2905 	6.50739e-12
0.2912 	5.27385e-12
0.2919 	4.24699e-12
0.2926 	3.23603e-12
0.2933 	2.42163e-12
0.294 	2.16442e-12
0.2947 	2.04982e-12
0.2954 	1.87504e-12
0.2961 	1.65512e-12
0.2968 	1.47582e-12
0.2975 	1.30758e-12
0.2982 	1.14807e-12
0.2989 	1.04965e-12
0.2996 	9.91648e-13
0.3003 	9.00465e-13
0.301 	7.65036e-13
0.3017 	6.52082e-13
0.3024 	5.51615e-13
0.3031 	4.51396e-13
0.3038 	3.99399e-13
0.3045 	3.7969e-13
0.3052 	3.46821e-13
0.3059 	2.81049e-13
0.3066 	2.23229e-13
0.3073 	1.7336e-13
0.308 	1.23492e-13
0.3087 	9.99393e-14
0.3094 	9.52481e-14
0.3101 	8.96828e-14
0.3108 	7.21071e-14
0.3115 	5.59314e-14
0.3122 	4.2276e-14
0.3129 	2.86205e-14
0.3136 	2.15457e-14
0.3143 	2.00903e-14
0.315 	1.94671e-14
0.3157 	1.56632e-14
0.3164 	1.20281e-14
0.3171 	9.01203e-15
0.3178 	5.99594e-15
0.3185 	4.18643e-15
0.3192 	3.76529e-15
0.3199 	3.62265e-15
0.3206 	2.97768e-15
0.3213 	2.25925e-15
0.322 	1.67436e-15
0.3227 	1.08947e-15
0.3234 	6.81669e-16
0.3241 	5.76634e-16
0.3248 	5.42736e-16
0.3255 	4.58572e-16
0.3262 	3.54301e-16
0.3269 	2.68985e-16
0.3276 	1.85126e-16
0.3283 	1.1704e-16
0.329 	9.47389e-17
0.3297 	8.54351e-17
0.3304 	7.31997e-17
0.3311 	5.87658e-17
0.3318 	4.67436e-17
0.3325 	3.53793e-17
0.3332 	2.48626e-17
0.3339 	1.99099e-17
0.3346 	1.73591e-17
0.3353 	1.4715e-17
0.336 	1.19462e-17
0.3367 	9.61852e-18
0.3374 	7.53579e-18
0.3381 	5.45653e-18
0.3388 	4.24242e-18
0.3395 	3.66621e-18
0.3402 	3.07558e-18
0.3409 	2.44888e-18
0.3416 	1.90684e-18
0.3423 	1.44947e-18
0.343 	9.92091e-19
0.3437 	7.03076e-19
0.3444 	5.98888e-19
0.3451 	5.04341e-19
0.3458 	3.94864e-19
0.3465 	2.96121e-19
0.3472 	2.167e-19
0.3479 	1.3728e-19
0.3486 	8.57683e-20
0.3493 	6.89001e-20
0.35 	5.84928e-20
0.3507 	4.54287e-20
0.3514 	3.31417e-20
0.3521 	2.37041e-20
0.3528 	1.42665e-20
0.3535 	7.68591e-21
0.3542 	5.55591e-21
0.3549 	4.72601e-21
0.3556 	3.68302e-21
0.3563 	2.62612e-21
0.357 	1.85025e-21
0.3577 	1.07438e-21
0.3584 	4.83847e-22
0.3591 	2.88964e-22
0.3598 	2.4619e-22
0.3605 	1.93336e-22
0.3612 	1.3645e-22
0.3619 	9.45144e-23
0.3626 	5.37286e-23
0.3633 	1.97091e-23
0.364 	8.12266e-24
0.3647 	6.9706e-24
0.3654 	5.557e-24
0.3661 	3.94726e-24
0.3668 	2.68616e-24
0.3675 	1.52016e-24
0.3682 	4.56944e-25
0.3689 	9.0988e-26
0.3696 	7.89564e-26
0.3703 	6.43574e-26
0.371 	4.63352e-26
0.3717 	3.13318e-26
0.3724 	1.80058e-26
0.3731 	4.70599e-27
0.3738 	2.22954e-28
0.3745 	1.97515e-28
0.3752 	1.66508e-28
0.3759 	1.21582e-28
0.3766 	8.25161e-29
0.3773 	4.9312e-29
0.378 	1.6108e-29
0.3787 	1.02906e-30
0.3794 	1.41568e-31
0.3801 	1.17444e-31
0.3808 	8.52537e-32
0.3815 	5.87221e-32
0.3822 	4.23772e-32
0.3829 	2.60324e-32
0.3836 	9.3313e-33
0.3843 	5.15515e-33
0.385 	4.43305e-33
0.3857 	3.38489e-33
0.3864 	2.48079e-33
0.3871 	2.10497e-33
0.3878 	1.72915e-33
0.3885 	1.11286e-33
0.3892 	7.5495e-34
0.3899 	6.39697e-34
0.3906 	4.77947e-34
0.3913 	3.16584e-34
0.392 	2.61025e-34
0.3927 	2.05465e-34
0.3934 	1.20986e-34
0.3941 	5.58683e-35
0.3948 	4.82808e-35
0.3955 	3.665e-35
0.3962 	2.34018e-35
0.3969 	1.88818e-35
0.3976 	1.50332e-35
0.3983 	9.45849e-36
0.399 	3.00373e-36
0.3997 	2.64517e-36
0.4004 	2.0601e-36
0.4011 	1.30517e-36
0.4018 	9.92625e-37
0.4025 	8.00738e-37
0.4032 	5.53152e-37
0.4039 	9.87864e-38
0.4046 	9.03255e-38
0.4053 	7.38113e-38
0.406 	4.65592e-38
0.4067 	3.31998e-38
0.4074 	2.75588e-38
0.4081 	2.18855e-38
0.4088 	1.63883e-39
0.4095 	1.59215e-39
0.4102 	1.41081e-39
0.4109 	8.92805e-40
0.4116 	5.92686e-40
0.4123 	5.10454e-40
0.413 	4.28223e-40
0.4137 	4.10026e-41
0.4144 	1.0505e-41
0.4151 	1.06326e-41
0.4158 	6.78685e-42
0.4165 	4.16552e-42
0.4172 	3.74824e-42
0.4179 	3.33097e-42
0.4186 	7.50683e-43
0.4193 	1.69376e-44
0.42 	2.07569e-44
0.4207 	1.3411e-44
0.4214 	7.54049e-45
0.4221 	7.08005e-45
0.4228 	6.61961e-45
0.4235 	2.46828e-45
0.4242 	4.49456e-48
0.4249 	6.27454e-48
0.4256 	4.50916e-48
0.4263 	2.31589e-48
0.427 	2.24199e-48
0.4277 	2.16809e-48
0.4284 	1.14316e-48
0.4291 	4.09145e-52
0.4298 	5.86364e-52
0.4305 	4.72589e-52
0.4312 	2.42416e-52
0.4319 	2.1966e-52
0.4326 	2.1286e-52
0.4333 	1.43821e-52
0.434 	3.80016e-56
0.4347 	5.60693e-56
0.4354 	5.06221e-56
0.4361 	2.75387e-56
0.4368 	2.20862e-56
0.4375 	2.14421e-56
0.4382 	1.76561e-56
0.4389 	3.48598e-60
0.4396 	5.30074e-60
0.4403 	5.35447e-60
0.441 	3.06017e-60
0.4417 	2.20121e-60
0.4424 	2.1397e-60
0.4431 	2.07608e-60
0.4438 	3.15349e-64
0.4445 	4.95877e-64
0.4452 	5.6016e-64
0.4459 	3.33829e-64
0.4466 	2.17729e-64
0.4473 	2.11862e-64
0.448 	2.05996e-64
0.4487 	1.5793e-65
0.4494 	4.59686e-68
0.4501 	5.81223e-68
0.4508 	3.59043e-68
0.4515 	2.1423e-68
0.4522 	2.08685e-68
0.4529 	2.03139e-68
0.4536 	4.64995e-69
0.4543 	4.22741e-72
0.455 	5.99733e-72
0.4557 	3.82179e-72
0.4564 	2.10133e-72
0.4571 	2.04952e-72
0.4578 	1.9977e-72
0.4585 	7.59525e-73
0.4592 	3.84323e-76
0.4599 	5.57705e-76
0.4606 	4.01697e-76
0.4613 	2.05511e-76
0.462 	2.0072e-76
0.4627 	1.9593e-76
0.4634 	1.03962e-76
0.4641 	-1.05128e-78
0.4648 	-3.07316e-78
0.4655 	-2.22248e-78
0.4662 	-2.22768e-79
0.4669 	-8.30815e-80
0.4676 	-8.64885e-80
0.4683 	-9.69307e-80
0.469 	-9.19323e-79
0.4697 	-3.17156e-78
0.4704 	-2.85135e-78
0.4711 	-6.0181e-79
0.4718 	-1.20201e-79
0.4725 	-1.20775e-79
0.4732 	-1.21738e-79
0.4739 	-6.26978e-79
0.4746 	-2.97257e-78
0.4753 	-3.30815e-78
0.476 	-9.63723e-79
0.4767 	-1.26508e-79
0.4774 	-1.26657e-79
0.4781 	-1.26806e-79
0.4788 	-2.94091e-79
0.4795 	-2.62873e-78
0.4802 	-3.62923e-78
0.4809 	-1.29438e-78
0.4816 	-1.26824e-79
0.4823 	-1.26585e-79
0.483 	-1.26345e-79
0.4837 	-1.24953e-79
0.4844 	-2.1934e-78
0.4851 	-3.78438e-78
0.4858 	-1.55525e-78
0.4865 	-1.2202e-79
0.4872 	-1.21442e-79
0.4879 	-1.20864e-79
0.4886 	-1.18263e-79
0.4893 	-1.72199e-78
0.49 	-3.76401e-78
0.4907 	-1.7195e-78
0.4914 	-1.1291e-79
0.4921 	-1.12075e-79
0.4928 	-1.1124e-79
0.4935 	-1.08148e-79
0.4942 	-1.26446e-78
0.4949 	-3.06582e-78
0.4956 	-1.7764e-78
0.4963 	-1.00658e-79
0.497 	-9.96628e-80
0.4977 	-9.86677e-80
0.4984 	-9.56846e-80
0.4991 	-8.58637e-79
0.4998 	-2.39016e-78
0.5005 	-1.73124e-78
0.5012 	-1.96157e-79
0.5019 	-8.55154e-80
0.5026 	-8.44574e-80
0.5033 	-8.20002e-80
0.504 	-5.26977e-79
0.5047 	-1.78362e-78
0.5054 	-1.60203e-78
0.5061 	-3.41768e-79
0.5068 	-7.08883e-80
0.5075 	-6.98519e-80
0.5082 	-6.81335e-80
0.5089 	-2.77052e-79
0.5096 	-1.27336e-78
0.5103 	-1.41423e-78
0.511 	-4.14499e-79
0.5117 	-5.68343e-80
0.5124 	-5.58833e-80
0.5131 	-5.49324e-80
0.5138 	-1.04546e-79
0.5145 	-8.68652e-79
0.5152 	-1.19526e-78
0.5159 	-4.2811e-79
0.5166 	-4.41178e-80
0.5173 	-4.32925e-80
0.518 	-4.24671e-80
0.5187 	-3.83554e-80
0.5194 	-5.64983e-79
0.5201 	-9.69968e-79
0.5208 	-3.99908e-79
0.5215 	-3.31931e-80
0.5222 	-3.2511e-80
0.5229 	-3.18289e-80
0.5236 	-2.88722e-80
0.5243 	-3.49076e-79
0.525 	-7.5766e-79
0.5257 	-3.47005e-79
0.5264 	-2.42301e-80
0.5271 	-2.36909e-80
0.5278 	-2.31517e-80
0.5285 	-2.11638e-80
0.5292 	-2.03587e-79
0.5299 	-4.89063e-79
0.5306 	-2.8378e-79
0.5313 	-1.71776e-80
0.532 	-1.67683e-80
0.5327 	-1.6359e-80
0.5334 	-1.51179e-80
0.5341 	-1.10821e-79
0.5348 	-3.04581e-79
0.5355 	-2.20692e-79
0.5362 	-2.57428e-80
0.5369 	-1.15386e-80
0.5376 	-1.12394e-80
0.5383 	-1.05311e-80
0.539 	-5.50837e-80
0.5397 	-1.82956e-79
0.5404 	-1.64202e-79
0.5411 	-3.54766e-80
0.5418 	-7.72587e-81
0.5425 	-7.51468e-81
0.5432 	-7.15822e-81
0.5439 	-2.37843e-80
0.5446 	-1.05913e-79
0.5453 	-1.17393e-79
0.546 	-3.46734e-80
0.5467 	-5.03747e-81
0.5474 	-4.8933e-81
0.5481 	-4.74914e-81
0.5488 	-7.62614e-81
0.5495 	-5.90053e-80
0.5502 	-8.09118e-80
0.5509 	-2.91365e-80
0.5516 	-3.2009e-81
0.5523 	-3.10554e-81
0.553 	-3.01018e-81
0.5537 	-2.50626e-81
0.5544 	-3.15596e-80
0.5551 	-5.39029e-80
0.5558 	-2.23132e-80
0.5565 	-1.98344e-81
0.5572 	-1.92222e-81
0.5579 	-1.861e-81
0.5586 	-1.57791e-81
0.5593 	-1.61424e-80
0.56 	-3.47805e-80
0.5607 	-1.59796e-80
0.5614 	-1.19923e-81
0.5621 	-1.16104e-81
0.5628 	-1.12285e-81
0.5635 	-9.72229e-82
0.5642 	-7.84497e-81
0.5649 	-1.86667e-80
0.5656 	-1.08512e-80
0.5663 	-7.07895e-82
0.567 	-6.84722e-82
0.5677 	-6.61548e-82
0.5684 	-5.86414e-82
0.5691 	-3.58221e-81
0.5698 	-9.71869e-81
0.5705 	-7.04607e-81
0.5712 	-8.49816e-82
0.5719 	-3.94468e-82
0.5726 	-3.80775e-82
0.5733 	-3.46318e-82
0.574 	-1.50478e-81
0.5747 	-4.90484e-81
0.5754 	-4.39922e-81
0.5761 	-9.64353e-82
0.5768 	-2.2209e-82
0.5775 	-2.14206e-82
0.5782 	-2.00288e-82
0.5789 	-5.5503e-82
0.5796 	-2.39666e-81
0.5803 	-2.65128e-81
0.581 	-7.8989e-82
0.5817 	-1.22249e-82
0.5824 	-1.17821e-82
0.5831 	-1.13394e-82
0.5838 	-1.56257e-82
0.5845 	-1.13181e-81
0.5852 	-1.54678e-81
0.5859 	-5.60283e-82
0.5866 	-6.58119e-83
0.5873 	-6.33858e-83
0.588 	-6.09597e-83
0.5887 	-4.68378e-83
0.5894 	-5.15146e-82
0.5901 	-8.75421e-82
0.5908 	-3.63937e-82
0.5915 	-3.46593e-83
0.5922 	-3.33611e-83
0.5929 	-3.2063e-83
0.5936 	-2.5458e-83
0.5943 	-2.25032e-82
0.595 	-4.81419e-82
0.5957 	-2.21908e-82
0.5964 	-1.78597e-83
0.5971 	-1.71812e-83
0.5978 	-1.65026e-83
0.5985 	-1.35667e-83
0.5992 	-9.37197e-83
0.5999 	-2.20982e-82
0.6006 	-1.28699e-82
0.6013 	-9.00559e-84
0.602 	-8.65899e-84
0.6027 	-8.31239e-84
0.6034 	-7.08668e-84
0.6041 	-3.67984e-83
0.6048 	-9.86316e-83
0.6055 	-7.15516e-83
0.6062 	-8.90621e-84
0.6069 	-4.27039e-84
0.6076 	-4.09731e-84
0.6083 	-3.62733e-84
0.609 	-1.3344e-83
0.6097 	-4.27502e-83
0.6104 	-3.83206e-83
0.6111 	-8.5142e-84
0.6118 	-2.06051e-84
0.6125 	-1.97602e-84
0.6132 	-1.81853e-84
0.6139 	-4.27541e-84
0.6146 	-1.79614e-83
0.6153 	-1.98339e-83
0.616 	-5.95514e-84
0.6167 	-9.72422e-85
0.6174 	-9.32094e-85
0.6181 	-8.91766e-85
0.6188 	-1.06526e-84
0.6195 	-7.29652e-84
0.6202 	-9.94113e-84
0.6209 	-3.6191e-84
0.6216 	-4.48632e-85
0.6223 	-4.29817e-85
0.623 	-4.11001e-85
0.6237 	-2.89736e-85
0.6244 	-2.85562e-84
0.6251 	-4.83102e-84
0.6258 	-2.01535e-84
0.6265 	-2.02196e-85
0.6272 	-1.93619e-85
0.6279 	-1.85041e-85
0.6286 	-1.36989e-85
0.6293 	-1.07116e-84
0.63 	-2.27756e-84
0.6307 	-1.0524e-84
0.6314 	-8.89449e-86
0.6321 	-8.51266e-86
0.6328 	-8.13083e-86
0.6335 	-6.3257e-86
0.6342 	-3.82177e-85
0.6349 	-8.94302e-85
0.6356 	-5.21451e-85
0.6363 	-3.815e-86
0.637 	-3.64916e-86
0.6377 	-3.48333e-86
0.6384 	-2.8492e-86
0.6391 	-1.28148e-85
0.6398 	-3.40123e-85
0.6405 	-2.46768e-85
0.6412 	-3.12807e-86
0.6419 	-1.52353e-86
0.6426 	-1.45333e-86
0.6433 	-1.25014e-86
0.644 	-3.95437e-86
0.6447 	-1.24997e-85
0.6454 	-1.11955e-85
0.6461 	-2.50406e-86
0.6468 	-6.18817e-87
0.6475 	-5.89886e-87
0.6482 	-5.33654e-87
0.6489 	-1.07547e-86
0.6496 	-4.4271e-86
0.6503 	-4.88059e-86
0.651 	-1.46989e-86
0.6517 	-2.44302e-87
0.6524 	-2.32708e-87
0.6531 	-2.21114e-87
0.6538 	-2.28673e-87
0.6545 	-1.50664e-86
0.6552 	-2.04771e-86
0.6559 	-7.46541e-87
0.6566 	-9.36907e-88
0.6573 	-8.91772e-88
0.658 	-8.46638e-88
0.6587 	-5.38288e-88
0.6594 	-4.91023e-87
0.6601 	-8.28001e-87
0.6608 	-3.45617e-87
0.6615 	-3.48997e-88
0.6622 	-3.31937e-88
0.6629 	-3.14877e-88
0.6636 	-2.14776e-88
0.6643 	-1.52595e-87
0.665 	-3.23121e-87
0.6657 	-1.49322e-87
0.6664 	-1.26302e-88
0.6671 	-1.2004e-88
0.6678 	-1.13778e-88
0.6685 	-8.31342e-89
0.6692 	-4.49246e-88
0.6699 	-1.04607e-87
0.6706 	-6.09685e-88
0.6713 	-4.44012e-89
0.672 	-4.2167e-89
0.6727 	-3.99327e-89
0.6734 	-3.11859e-89
0.6741 	-1.23747e-88
0.6748 	-3.26421e-88
0.6755 	-2.36622e-88
0.6762 	-2.98341e-89
0.6769 	-1.43414e-89
0.6776 	-1.35654e-89
0.6783 	-1.12888e-89
0.679 	-3.10213e-89
0.6797 	-9.72399e-89
0.6804 	-8.69795e-89
0.6811 	-1.936e-89
0.6818 	-4.66369e-90
0.6825 	-4.40165e-90
0.6832 	-3.89043e-90
0.6839 	-6.62499e-90
0.6846 	-2.69061e-89
0.6853 	-2.9606e-89
0.686 	-8.86403e-90
0.6867 	-1.40158e-90
0.6874 	-1.31685e-90
0.6881 	-1.23211e-90
0.6888 	-1.0152e-90
0.6895 	-6.48288e-90
0.6902 	-8.78599e-90
0.6909 	-3.1777e-90
0.6916 	-3.61081e-91
0.6923 	-3.36228e-91
0.693 	-3.11376e-91
0.6937 	-1.47102e-91
0.6944 	-1.18671e-90
0.6951 	-1.99169e-90
0.6958 	-8.22303e-91
0.6965 	-6.85279e-92
0.6972 	-6.28824e-92
0.6979 	-5.7237e-92
0.6986 	-2.63136e-92
0.6993 	-1.81103e-92
0.7 	-1.891e-92
