0 	1
0.0007 	1
0.0014 	1
0.0021 	1
0.0028 	1
0.0035 	1
0.0042 	1
0.0049 	1
0.0056 	1
0.0063 	1
0.007 	1
0.0077 	1
0.0084 	1
0.0091 	1
0.0098 	1
0.0105 	1
0.0112 	1
0.0119 	1
0.0126 	1
0.0133 	1
0.014 	1
0.0147 	1
0.0154 	1
0.0161 	1
0.0168 	1
0.0175 	1
0.0182 	1
0.0189 	1
0.0196 	1
0.0203 	1
0.021 	1
0.0217 	1
0.0224 	1
0.0231 	1
0.0238 	1
0.0245 	1
0.0252 	1
0.0259 	1
0.0266 	1
0.0273 	1
0.028 	1
0.0287 	1
0.0294 	1
0.0301 	1
0.0308 	1
0.0315 	1
0.0322 	1
0.0329 	1
0.0336 	1
0.0343 	1
0.035 	1
0.0357 	1
0.0364 	1
0.0371 	1
0.0378 	1
0.0385 	1
0.0392 	1
0.0399 	1
0.0406 	1
0.0413 	1
0.042 	1
0.0427 	1
0.0434 	1
0.0441 	1
0.0448 	1
0.0455 	1
0.0462 	1
0.0469 	1
0.0476 	1
0.0483 	1
0.049 	1
0.0497 	1
0.0504 	1
0.0511 	1
0.0518 	1
0.0525 	1
0.0532 	1
0.0539 	1
0.0546 	1
0.0553 	1
0.056 	1
0.0567 	1
0.0574 	1
0.0581 	1
0.0588 	1
0.0595 	1
0.0602 	1
0.0609 	1
0.0616 	1
0.0623 	1
0.063 	1
0.0637 	1
0.0644 	1
0.0651 	1
0.0658 	1
0.0665 	1
0.0672 	1
0.0679 	1
0.0686 	1
0.0693 	1
0.07 	1
0.0707 	1
0.0714 	1
0.0721 	1
0.0728 	1
0.0735 	1
0.0742 	1
0.0749 	1
0.0756 	1
0.0763 	1
0.077 	1
0.0777 	1
0.0784 	1
0.0791 	1
0.0798 	1
0.0805 	1
0.0812 	1
0.0819 	1
0.0826 	1
0.0833 	1
0.084 	1
0.0847 	1
0.0854 	1
0.0861 	1
0.0868 	1
0.0875 	1
0.0882 	1
0.0889 	1
0.0896 	1
0.0903 	1
0.091 	1
0.0917 	1
0.0924 	1
0.0931 	1
0.0938 	1
0.0945 	1
0.0952 	1
0.0959 	1
0.0966 	1
0.0973 	1
0.098 	1
0.0987 	1
0.0994 	1
0.1001 	1
0.1008 	1
0.1015 	1
0.1022 	1
0.1029 	1
0.1036 	1
0.1043 	1
0.105 	1
0.1057 	1
0.1064 	1
0.1071 	1
0.1078 	1
0.1085 	1
0.1092 	1
0.1099 	1
0.1106 	1
0.1113 	1
0.112 	1
0.1127 	1
0.1134 	1
0.1141 	1
0.1148 	1
0.1155 	1
0.1162 	1
0.1169 	1
0.1176 	1
0.1183 	1
0.119 	1
0.1197 	1
0.1204 	1
0.1211 	1
0.1218 	1
0.1225 	1
0.1232 	1
0.1239 	1
0.1246 	1
0.1253 	1
0.126 	1
0.1267 	1
0.1274 	1
0.1281 	1
0.1288 	1
0.1295 	1
0.1302 	1
0.1309 	1
0.1316 	1
0.1323 	1
0.133 	1
0.1337 	1
0.1344 	1
0.1351 	1
0.1358 	1
0.1365 	1
0.1372 	1
0.1379 	1
0.1386 	1
0.1393 	1
0.14 	1
0.1407 	1
0.1414 	1
0.1421 	1
0.1428 	1
0.1435 	1
0.1442 	1
0.1449 	1
0.1456 	1
0.1463 	1
0.147 	1
0.1477 	1
0.1484 	1
0.1491 	1
0.1498 	1
0.1505 	1
0.1512 	1
0.1519 	1
0.1526 	1
0.1533 	1
0.154 	1
0.1547 	1
0.1554 	1
0.1561 	1
0.1568 	1
0.1575 	1
0.1582 	1
0.1589 	1
0.1596 	1
0.1603 	1
0.161 	1
0.1617 	1
0.1624 	1
0.1631 	1
0.1638 	1
0.1645 	1
0.1652 	1
0.1659 	1
0.1666 	1
0.1673 	1
0.168 	1
0.1687 	1
0.1694 	1
0.1701 	1
0.1708 	1
0.1715 	1
0.1722 	1
0.1729 	1
0.1736 	1
0.1743 	1
0.175 	1
0.1757 	1
0.1764 	1
0.1771 	1
0.1778 	1
0.1785 	1
0.1792 	1
0.1799 	1
0.1806 	1
0.1813 	1
0.182 	1
0.1827 	1
0.1834 	1
0.1841 	1
0.1848 	1
0.1855 	1
0.1862 	1
0.1869 	1
0.1876 	1
0.1883 	1
0.189 	1
0.1897 	1
0.1904 	1
0.1911 	1
0.1918 	1
0.1925 	1
0.1932 	1
0.1939 	1
0.1946 	1
0.1953 	1
0.196 	1
0.1967 	1
0.1974 	1
0.1981 	1
0.1988 	1
0.1995 	1
0.2002 	1
0.2009 	1
0.2016 	1
0.2023 	1
0.203 	1
0.2037 	1
0.2044 	1
0.2051 	1
0.2058 	1
0.2065 	1
0.2072 	1
0.2079 	1
0.2086 	1
0.2093 	1
0.21 	1
0.2107 	1
0.2114 	1
0.2121 	1
0.2128 	1
0.2135 	1
0.2142 	1
0.2149 	1
0.2156 	1
0.2163 	1
0.217 	1
0.2177 	1
0.2184 	1
0.2191 	1
0.2198 	1
0.2205 	1
0.2212 	1
0.2219 	1
0.2226 	1
0.2233 	1
0.224 	1
0.2247 	1
0.2254 	1
0.2261 	1
0.2268 	1
0.2275 	1
0.2282 	1
0.2289 	1
0.2296 	1
0.2303 	1
0.231 	1
0.2317 	1
0.2324 	1
0.2331 	1
0.2338 	1
0.2345 	1
0.2352 	1
0.2359 	1
0.2366 	1
0.2373 	1
0.238 	1
0.2387 	1
0.2394 	1
0.2401 	1
0.2408 	1
0.2415 	1
0.2422 	1
0.2429 	1
0.2436 	1
0.2443 	1
0.245 	1
0.2457 	1
0.2464 	1
0.2471 	1
0.2478 	1
0.2485 	1
0.2492 	1
0.2499 	1
0.2506 	1
0.2513 	1
0.252 	1
0.2527 	1
0.2534 	1
0.2541 	1
0.2548 	1
0.2555 	1
0.2562 	1
0.2569 	1
0.2576 	1
0.2583 	1
0.259 	1
0.2597 	1
0.2604 	1
0.2611 	1
0.2618 	1
0.2625 	1
0.2632 	1
0.2639 	1
0.2646 	1
0.2653 	1
0.266 	1
0.2667 	1
0.2674 	0.999999
0.2681 	0.999995
0.2688 	0.999991
0.2695 	0.999987
0.2702 	0.999985
0.2709 	0.999988
0.2716 	0.999957
0.2723 	0.999855
0.273 	0.999366
0.2737 	0.998878
0.2744 	0.998327
0.2751 	0.99786
0.2758 	0.997929
0.2765 	0.996882
0.2772 	0.993829
0.2779 	0.9839
0.2786 	0.973554
0.2793 	0.960754
0.28 	0.947284
0.2807 	0.940545
0.2814 	0.929296
0.2821 	0.901515
0.2828 	0.85738
0.2835 	0.809111
0.2842 	0.747309
0.2849 	0.677989
0.2856 	0.611191
0.2863 	0.545231
0.287 	0.484684
0.2877 	0.425591
0.2884 	0.36727
0.2891 	0.311864
0.2898 	0.259373
0.2905 	0.199799
0.2912 	0.137392
0.2919 	0.0940691
0.2926 	0.0627354
0.2933 	0.0415612
0.294 	0.0277295
0.2947 	0.0271137
0.2954 	0.022461
0.2961 	0.0147805
0.2968 	0.00812297
0.2975 	0.00358595
0.2982 	0.00226597
0.2989 	0.00122554
0.2996 	0.00121014
0.3003 	0.00105417
0.301 	0.000710773
0.3017 	0.000404741
0.3024 	0.000169321
0.3031 	0.000111349
0.3038 	5.75388e-05
0.3045 	5.783e-05
0.3052 	5.32218e-05
0.3059 	3.6365e-05
0.3066 	2.08101e-05
0.3073 	7.42625e-06
0.308 	4.82149e-06
0.3087 	2.21674e-06
0.3094 	2.03947e-06
0.3101 	1.96005e-06
0.3108 	1.34748e-06
0.3115 	7.67441e-07
0.3122 	2.45945e-07
0.3129 	1.24267e-07
0.3136 	3.2721e-08
0.3143 	1.29627e-08
0.315 	1.27819e-08
0.3157 	8.94714e-09
0.3164 	5.24503e-09
0.3171 	2.02927e-09
0.3178 	8.53059e-10
0.3185 	2.34758e-10
0.3192 	1.41587e-11
0.3199 	1.44974e-11
0.3206 	1.2761e-11
0.3213 	1.06959e-11
0.322 	8.8543e-12
0.3227 	8.04841e-12
0.3234 	7.82379e-12
0.3241 	7.71894e-12
0.3248 	7.73387e-12
0.3255 	7.75117e-12
0.3262 	7.76942e-12
0.3269 	7.7736e-12
0.3276 	7.76643e-12
0.3283 	7.74885e-12
0.329 	7.72595e-12
0.3297 	7.69351e-12
0.3304 	7.6731e-12
0.3311 	7.6617e-12
0.3318 	7.61754e-12
0.3325 	7.54646e-12
0.3332 	7.44216e-12
0.3339 	7.32903e-12
0.3346 	7.18348e-12
0.3353 	7.0527e-12
0.336 	6.94158e-12
0.3367 	6.82375e-12
0.3374 	6.69092e-12
0.3381 	6.51478e-12
0.3388 	6.33794e-12
0.3395 	6.15186e-12
0.3402 	5.97344e-12
0.3409 	5.81417e-12
0.3416 	5.64706e-12
0.3423 	5.46977e-12
0.343 	5.25697e-12
0.3437 	5.04418e-12
0.3444 	4.81713e-12
0.3451 	4.58935e-12
0.3458 	4.36368e-12
0.3465 	4.14066e-12
0.3472 	3.92242e-12
0.3479 	3.70144e-12
0.3486 	3.48021e-12
0.3493 	3.26485e-12
0.35 	3.0511e-12
0.3507 	2.8037e-12
0.3514 	2.56288e-12
0.3521 	2.34615e-12
0.3528 	2.15903e-12
0.3535 	1.98063e-12
0.3542 	1.82171e-12
0.3549 	1.67363e-12
0.3556 	1.47777e-12
0.3563 	1.27671e-12
0.357 	1.11144e-12
0.3577 	9.81709e-13
0.3584 	8.73053e-13
0.3591 	7.83375e-13
0.3598 	7.12676e-13
0.3605 	6.07633e-13
0.3612 	4.88852e-13
0.3619 	3.95089e-13
0.3626 	3.24653e-13
0.3633 	2.77107e-13
0.364 	2.39001e-13
0.3647 	2.17886e-13
0.3654 	1.82636e-13
0.3661 	1.36785e-13
0.3668 	9.95755e-14
0.3675 	7.17853e-14
0.3682 	5.77926e-14
0.3689 	4.60979e-14
0.3696 	4.28291e-14
0.3703 	3.63841e-14
0.371 	2.57042e-14
0.3717 	1.66001e-14
0.3724 	9.4831e-15
0.3731 	6.98647e-15
0.3738 	4.65871e-15
0.3745 	4.52608e-15
0.3752 	4.06565e-15
0.3759 	2.7857e-15
0.3766 	1.63041e-15
0.3773 	6.39571e-16
0.378 	4.15485e-16
0.3787 	1.91399e-16
0.3794 	1.85254e-16
0.3801 	1.85984e-16
0.3808 	1.27378e-16
0.3815 	7.17341e-17
0.3822 	2.14225e-17
0.3829 	1.02764e-17
0.3836 	3.2516e-18
0.3843 	1.97934e-18
0.385 	2.2759e-18
0.3857 	1.61868e-18
0.3864 	9.75626e-19
0.3871 	3.84488e-19
0.3878 	2.00368e-19
0.3885 	1.44623e-19
0.3892 	1.21655e-19
0.3899 	1.16896e-19
0.3906 	1.03761e-19
0.3913 	8.93434e-20
0.392 	7.63984e-20
0.3927 	6.76441e-20
0.3934 	6.1506e-20
0.3941 	5.61483e-20
0.3948 	5.15713e-20
0.3955 	4.39565e-20
0.3962 	3.51267e-20
0.3969 	2.80219e-20
0.3976 	2.28096e-20
0.3983 	1.95729e-20
0.399 	1.70051e-20
0.3997 	1.56414e-20
0.4004 	1.30615e-20
0.4011 	9.56948e-21
0.4018 	6.69721e-21
0.4025 	4.56631e-21
0.4032 	3.61538e-21
0.4039 	2.83399e-21
0.4046 	2.67421e-21
0.4053 	2.27858e-21
0.406 	1.5685e-21
0.4067 	9.52752e-22
0.4074 	4.65658e-22
0.4081 	3.20957e-22
0.4088 	1.86715e-22
0.4095 	1.88427e-22
0.4102 	1.73623e-22
0.4109 	1.17528e-22
0.4116 	6.57784e-23
0.4123 	1.98512e-23
0.413 	1.16789e-23
0.4137 	3.50662e-24
0.4144 	3.26828e-24
0.4151 	3.43199e-24
0.4158 	2.3464e-24
0.4165 	1.30003e-24
0.4172 	3.24243e-25
0.4179 	1.29548e-25
0.4186 	2.8279e-26
0.4193 	7.97513e-27
0.42 	9.75213e-27
0.4207 	6.77075e-27
0.4214 	3.83178e-27
0.4221 	1.04828e-27
0.4228 	2.25344e-28
0.4235 	6.03879e-29
0.4242 	1.85659e-30
0.4249 	2.4488e-30
0.4256 	1.86529e-30
0.4263 	1.08849e-30
0.427 	3.46372e-31
0.4277 	3.75897e-32
0.4284 	1.25709e-32
0.4291 	7.21516e-35
0.4298 	9.32202e-35
0.4305 	7.74867e-35
0.4312 	4.70324e-35
0.4319 	1.81829e-35
0.4326 	2.0849e-36
0.4333 	8.18188e-37
0.434 	4.34769e-39
0.4347 	5.66133e-39
0.4354 	5.13356e-39
0.4361 	3.22475e-39
0.4368 	1.40131e-39
0.4375 	1.43729e-40
0.4382 	6.33776e-41
0.4389 	2.62126e-43
0.4396 	3.42425e-43
0.4403 	3.37324e-43
0.441 	2.18359e-43
0.4417 	1.03918e-43
0.4424 	1.02399e-44
0.4431 	4.95709e-45
0.4438 	5.17174e-47
0.4445 	5.31222e-47
0.4452 	4.95228e-47
0.4459 	3.34128e-47
0.4466 	1.85652e-47
0.4473 	5.27918e-48
0.448 	2.86922e-48
0.4487 	4.59255e-49
0.4494 	2.55017e-49
0.4501 	2.16011e-49
0.4508 	1.5043e-49
0.4515 	9.09796e-50
0.4522 	4.25619e-50
0.4529 	2.1999e-50
0.4536 	5.14672e-51
0.4543 	1.39716e-51
0.455 	1.22097e-51
0.4557 	8.61814e-52
0.4564 	5.21509e-52
0.4571 	2.5032e-52
0.4578 	1.1703e-52
0.4585 	3.26597e-53
0.4592 	2.45666e-54
0.4599 	2.34569e-54
0.4606 	1.73361e-54
0.4613 	1.04694e-54
0.462 	4.76306e-55
0.4627 	1.75394e-55
0.4634 	5.89497e-56
0.4641 	7.81076e-58
0.4648 	8.86923e-58
0.4655 	7.18583e-58
0.4662 	4.40569e-58
0.4669 	1.87351e-58
0.4676 	3.8506e-59
0.4683 	1.51054e-59
0.469 	6.76158e-62
0.4697 	8.284e-62
0.4704 	7.38309e-62
0.4711 	4.6647e-62
0.4718 	2.09872e-62
0.4725 	2.94805e-63
0.4732 	1.30024e-63
0.4739 	5.85718e-66
0.4746 	7.33035e-66
0.4753 	7.10666e-66
0.476 	4.62047e-66
0.4767 	2.2403e-66
0.4774 	2.70507e-67
0.4781 	1.30493e-67
0.4788 	4.89583e-70
0.4795 	6.23539e-70
0.4802 	6.56722e-70
0.4809 	4.37973e-70
0.4816 	2.26114e-70
0.4823 	2.44166e-71
0.483 	1.26488e-71
0.4837 	8.81048e-73
0.4844 	4.9547e-74
0.4851 	5.54769e-74
0.4858 	3.87467e-74
0.4865 	2.17478e-74
0.4872 	4.26541e-75
0.4879 	1.18633e-75
0.4886 	2.06976e-76
0.4893 	-3.12356e-75
0.49 	-7.09531e-75
0.4907 	-3.1284e-75
0.4914 	-1.2431e-77
0.4921 	-1.65037e-77
0.4928 	-1.92663e-77
0.4935 	-2.15409e-77
0.4942 	-5.64268e-75
0.4949 	-1.43854e-74
0.4956 	-8.14604e-75
0.4963 	-3.40589e-77
0.497 	-3.81402e-77
0.4977 	-4.13505e-77
0.4984 	-4.39419e-77
0.4991 	-6.92621e-75
0.4998 	-2.06881e-74
0.5005 	-1.47949e-74
0.5012 	-1.03967e-75
0.5019 	-6.11229e-77
0.5026 	-6.4618e-77
0.5033 	-6.71814e-77
0.504 	-6.78791e-75
0.5047 	-2.56012e-74
0.5054 	-2.29173e-74
0.5061 	-4.1105e-75
0.5068 	-8.38078e-77
0.5075 	-8.74383e-77
0.5082 	-8.97925e-77
0.5089 	-5.12377e-75
0.5096 	-2.86067e-74
0.5103 	-3.19639e-74
0.511 	-8.48685e-75
0.5117 	-1.04721e-76
0.5124 	-1.08256e-76
0.5131 	-1.10221e-76
0.5138 	-2.06259e-75
0.5145 	-2.93691e-74
0.5152 	-4.10732e-74
0.5159 	-1.37715e-74
0.5166 	-1.22308e-76
0.5173 	-1.25452e-76
0.518 	-1.26869e-76
0.5187 	-1.28285e-76
0.5194 	-2.78874e-74
0.5201 	-4.9241e-74
0.5208 	-1.935e-74
0.5215 	-1.35199e-76
0.5222 	-1.37438e-76
0.5229 	-1.38402e-76
0.5236 	-1.39167e-76
0.5243 	-2.45083e-74
0.525 	-5.55232e-74
0.5257 	-2.45098e-74
0.5264 	-1.42504e-76
0.5271 	-1.43668e-76
0.5278 	-1.44059e-76
0.5285 	-1.4415e-76
0.5292 	-1.98429e-74
0.5299 	-5.04852e-74
0.5306 	-2.85977e-74
0.5313 	-1.44003e-76
0.532 	-1.44087e-76
0.5327 	-1.43822e-76
0.5334 	-1.433e-76
0.5341 	-1.46185e-74
0.5348 	-4.35692e-74
0.5355 	-3.11605e-74
0.5362 	-2.20807e-75
0.5369 	-1.39284e-76
0.5376 	-1.38337e-76
0.5383 	-1.37322e-76
0.539 	-9.51332e-75
0.5397 	-3.57678e-74
0.5404 	-3.20155e-74
0.5411 	-5.75809e-75
0.5418 	-1.30221e-76
0.5425 	-1.28606e-76
0.5432 	-1.27246e-76
0.5439 	-5.03587e-75
0.5446 	-2.79475e-74
0.5453 	-3.1219e-74
0.546 	-8.30362e-75
0.5467 	-1.18122e-76
0.5474 	-1.15924e-76
0.5481 	-1.14376e-76
0.5488 	-1.49129e-75
0.5495 	-2.07876e-74
0.5502 	-2.90563e-74
0.5509 	-9.75582e-75
0.5516 	-1.04333e-76
0.5523 	-1.01737e-76
0.553 	-1.00141e-76
0.5537 	-9.85445e-77
0.5544 	-1.47266e-74
0.5551 	-2.59784e-74
0.5558 	-1.02208e-74
0.5565 	-9.00445e-77
0.5572 	-8.73425e-77
0.5579 	-8.56304e-77
0.5586 	-8.40833e-77
0.5593 	-9.91423e-75
0.56 	-2.24257e-74
0.5607 	-9.91017e-75
0.5614 	-7.59811e-77
0.5621 	-7.33384e-77
0.5628 	-7.15643e-77
0.5635 	-7.01393e-77
0.5642 	-6.29685e-75
0.5649 	-1.59836e-74
0.5656 	-9.06134e-75
0.5663 	-6.29196e-77
0.567 	-6.05264e-77
0.5677 	-5.87842e-77
0.5684 	-5.75341e-77
0.5691 	-3.72115e-75
0.5698 	-1.10496e-74
0.5705 	-7.90656e-75
0.5712 	-5.74892e-76
0.5719 	-4.92561e-77
0.5726 	-4.75908e-77
0.5733 	-4.65267e-77
0.574 	-1.98521e-75
0.5747 	-7.41539e-75
0.5754 	-6.63809e-75
0.5761 	-1.20517e-75
0.5768 	-3.95064e-77
0.5775 	-3.79094e-77
0.5782 	-3.70186e-77
0.5789 	-8.80012e-76
0.5796 	-4.81722e-75
0.5803 	-5.37868e-75
0.581 	-1.43917e-75
0.5817 	-3.11864e-77
0.5824 	-2.97202e-77
0.5831 	-2.89887e-77
0.5838 	-2.27217e-76
0.5845 	-3.01186e-75
0.5852 	-4.20473e-75
0.5859 	-1.4182e-75
0.5866 	-2.42954e-77
0.5873 	-2.30228e-77
0.588 	-2.243e-77
0.5887 	-2.18407e-77
0.5894 	-1.79971e-75
0.5901 	-3.16712e-75
0.5908 	-1.25089e-75
0.5915 	-1.86581e-77
0.5922 	-1.75906e-77
0.5929 	-1.70316e-77
0.5936 	-1.65615e-77
0.5943 	-1.02084e-75
0.595 	-2.29913e-75
0.5957 	-1.01958e-75
0.5964 	-1.40173e-77
0.5971 	-1.30671e-77
0.5978 	-1.25287e-77
0.5985 	-1.21604e-77
0.5992 	-5.45167e-76
0.5999 	-1.37449e-75
0.6006 	-7.81267e-76
0.6013 	-1.02004e-77
0.602 	-9.35361e-78
0.6027 	-8.82762e-78
0.6034 	-8.5495e-78
0.6041 	-2.7014e-76
0.6048 	-7.93599e-76
0.6055 	-5.6873e-76
0.6062 	-4.45312e-77
0.6069 	-6.44425e-78
0.6076 	-5.95773e-78
0.6083 	-5.75775e-78
0.609 	-1.20548e-76
0.6097 	-4.42321e-76
0.6104 	-3.96054e-76
0.6111 	-7.37574e-77
0.6118 	-4.2857e-78
0.6125 	-3.87168e-78
0.6132 	-3.73444e-78
0.6139 	-4.49406e-77
0.6146 	-2.37738e-76
0.6153 	-2.65129e-76
0.616 	-7.19776e-77
0.6167 	-2.76106e-78
0.6174 	-2.4333e-78
0.6181 	-2.34289e-78
0.6188 	-1.03074e-77
0.6195 	-1.22985e-76
0.6202 	-1.71209e-76
0.6209 	-5.83024e-77
0.6216 	-1.72795e-78
0.6223 	-1.48532e-78
0.623 	-1.42607e-78
0.6237 	-1.36863e-78
0.6244 	-6.10451e-77
0.6251 	-1.06933e-76
0.6258 	-4.25176e-77
0.6265 	-1.05255e-78
0.6272 	-8.97568e-79
0.6279 	-8.43919e-79
0.6286 	-8.08599e-79
0.6293 	-2.89306e-77
0.63 	-6.47319e-77
0.6307 	-2.88435e-77
0.6314 	-6.24932e-79
0.6321 	-5.29418e-79
0.6328 	-4.86278e-79
0.6335 	-4.65213e-79
0.6342 	-1.29842e-77
0.6349 	-3.24699e-77
0.6356 	-1.85076e-77
0.6363 	-3.62028e-79
0.637 	-3.05036e-79
0.6377 	-2.73131e-79
0.6384 	-2.60925e-79
0.6391 	-5.43884e-78
0.6398 	-1.58069e-77
0.6405 	-1.13425e-77
0.6412 	-9.451e-79
0.6419 	-1.71795e-79
0.6426 	-1.4968e-79
0.6433 	-1.42799e-79
0.644 	-2.06549e-78
0.6447 	-7.46141e-78
0.6454 	-6.68124e-78
0.6461 	-1.269e-78
0.6468 	-9.46422e-80
0.6475 	-8.01097e-80
0.6482 	-7.6333e-80
0.6489 	-6.62264e-79
0.6496 	-3.41045e-78
0.6503 	-3.79926e-78
0.651 	-1.04221e-78
0.6517 	-5.10092e-80
0.6524 	-4.18877e-80
0.6531 	-3.98672e-80
0.6538 	-1.35887e-79
0.6545 	-1.50642e-78
0.6552 	-2.09246e-78
0.6559 	-7.17255e-79
0.6566 	-2.69341e-80
0.6573 	-2.14935e-80
0.658 	-2.03834e-80
0.6587 	-1.93297e-80
0.6594 	-6.41171e-79
0.6601 	-1.11922e-78
0.6608 	-4.47062e-79
0.6615 	-1.39468e-80
0.6622 	-1.11138e-80
0.6629 	-1.02181e-80
0.6636 	-9.68053e-81
0.6643 	-2.61909e-79
0.665 	-5.83075e-79
0.6657 	-2.60695e-79
0.6664 	-7.08735e-81
0.6671 	-5.646e-81
0.6678 	-5.02657e-81
0.6685 	-4.75795e-81
0.6692 	-1.01954e-79
0.6699 	-2.53296e-79
0.6706 	-1.4468e-79
0.6713 	-3.5395e-81
0.672 	-2.8206e-81
0.6727 	-2.42931e-81
0.6734 	-2.2978e-81
0.6741 	-3.72907e-80
0.6748 	-1.07408e-79
0.6755 	-7.71499e-80
0.6762 	-6.7415e-81
0.6769 	-1.38597e-81
0.6776 	-1.15403e-81
0.6783 	-1.09084e-81
0.679 	-1.24681e-80
0.6797 	-4.44383e-80
0.6804 	-3.97921e-80
0.6811 	-7.68363e-81
0.6818 	-6.70693e-82
0.6825 	-5.39729e-82
0.6832 	-5.0997e-82
0.6839 	-3.56382e-81
0.6846 	-1.79242e-80
0.6853 	-1.99481e-80
0.686 	-5.52321e-81
0.6867 	-3.20372e-82
0.6874 	-2.4934e-82
0.6881 	-2.35551e-82
0.6888 	-6.77734e-82
0.6895 	-7.04757e-81
0.6902 	-9.76902e-81
0.6909 	-3.36949e-81
0.6916 	-1.51281e-82
0.6923 	-1.14387e-82
0.693 	-1.0764e-82
0.6937 	-1.0133e-82
0.6944 	-2.69714e-81
0.6951 	-4.69233e-81
0.6958 	-1.88286e-81
0.6965 	-7.26268e-83
0.6972 	-6.09949e-83
0.6979 	-5.73528e-83
0.6986 	-5.52009e-83
0.6993 	-1.39192e-81
0.7 	-3.09379e-81
