0 	1
0.0007 	1
0.0014 	1
0.0021 	1
0.0028 	1
0.0035 	1
0.0042 	1
0.0049 	1
0.0056 	1
0.0063 	1
0.007 	1
0.0077 	1
0.0084 	1
0.0091 	1
0.0098 	1
0.0105 	1
0.0112 	1
0.0119 	1
0.0126 	1
0.0133 	1
0.014 	1
0.0147 	1
0.0154 	1
0.0161 	1
0.0168 	1
0.0175 	1
0.0182 	1
0.0189 	1
0.0196 	1
0.0203 	1
0.021 	1
0.0217 	1
0.0224 	1
0.0231 	1
0.0238 	1
0.0245 	1
0.0252 	1
0.0259 	1
0.0266 	1
0.0273 	1
0.028 	1
0.0287 	1
0.0294 	1
0.0301 	1
0.0308 	1
0.0315 	1
0.0322 	1
0.0329 	1
0.0336 	1
0.0343 	1
0.035 	1
0.0357 	1
0.0364 	1
0.0371 	1
0.0378 	1
0.0385 	1
0.0392 	1
0.0399 	1
0.0406 	1
0.0413 	1
0.042 	1
0.0427 	1
0.0434 	1
0.0441 	1
0.0448 	1
0.0455 	1
0.0462 	1
0.0469 	1
0.0476 	1
0.0483 	1
0.049 	1
0.0497 	1
0.0504 	1
0.0511 	1
0.0518 	1
0.0525 	1
0.0532 	1
0.0539 	1
0.0546 	1
0.0553 	1
0.056 	1
0.0567 	1
0.0574 	1
0.0581 	1
0.0588 	1
0.0595 	1
0.0602 	1
0.0609 	1
0.0616 	1
0.0623 	1
0.063 	1
0.0637 	1
0.0644 	1
0.0651 	1
0.0658 	1
0.0665 	1
0.0672 	1
0.0679 	1
0.0686 	1
0.0693 	1
0.07 	1
0.0707 	1
0.0714 	1
0.0721 	1
0.0728 	1
0.0735 	1
0.0742 	1
0.0749 	1
0.0756 	1
0.0763 	1
0.077 	1
0.0777 	1
0.0784 	1
0.0791 	1
0.0798 	1
0.0805 	1
0.0812 	1
0.0819 	1
0.0826 	1
0.0833 	1
0.084 	1
0.0847 	1
0.0854 	1
0.0861 	1
0.0868 	1
0.0875 	1
0.0882 	1
0.0889 	1
0.0896 	1
0.0903 	1
0.091 	1
0.0917 	1
0.0924 	1
0.0931 	1
0.0938 	1
0.0945 	1
0.0952 	1
0.0959 	1
0.0966 	1
0.0973 	1
0.098 	1
0.0987 	1
0.0994 	1
0.1001 	1
0.1008 	1
0.1015 	1
0.1022 	1
0.1029 	1
0.1036 	1
0.1043 	1
0.105 	1
0.1057 	1
0.1064 	1
0.1071 	1
0.1078 	1
0.1085 	1
0.1092 	1
0.1099 	1
0.1106 	1
0.1113 	1
0.112 	1
0.1127 	1
0.1134 	1
0.1141 	1
0.1148 	1
0.1155 	1
0.1162 	1
0.1169 	1
0.1176 	1
0.1183 	1
0.119 	1
0.1197 	1
0.1204 	1
0.1211 	1
0.1218 	1
0.1225 	1
0.1232 	1
0.1239 	1
0.1246 	1
0.1253 	1
0.126 	1
0.1267 	1
0.1274 	1
0.1281 	1
0.1288 	1
0.1295 	1
0.1302 	1
0.1309 	1
0.1316 	1
0.1323 	1
0.133 	1
0.1337 	1
0.1344 	1
0.1351 	1
0.1358 	1
0.1365 	1
0.1372 	1
0.1379 	1
0.1386 	1
0.1393 	1
0.14 	1
0.1407 	1
0.1414 	1
0.1421 	1
0.1428 	1
0.1435 	1
0.1442 	1
0.1449 	1
0.1456 	1
0.1463 	1
0.147 	1
0.1477 	1
0.1484 	1
0.1491 	1
0.1498 	1
0.1505 	1
0.1512 	1
0.1519 	1
0.1526 	1
0.1533 	1
0.154 	1
0.1547 	1
0.1554 	1
0.1561 	1
0.1568 	1
0.1575 	1
0.1582 	1
0.1589 	1
0.1596 	1
0.1603 	1
0.161 	1
0.1617 	1
0.1624 	1
0.1631 	1
0.1638 	1
0.1645 	1
0.1652 	1
0.1659 	1
0.1666 	1
0.1673 	1
0.168 	1
0.1687 	1
0.1694 	1
0.1701 	1
0.1708 	1
0.1715 	1
0.1722 	1
0.1729 	1
0.1736 	1
0.1743 	1
0.175 	1
0.1757 	1
0.1764 	1
0.1771 	1
0.1778 	1
0.1785 	1
0.1792 	1
0.1799 	1
0.1806 	1
0.1813 	1
0.182 	1
0.1827 	1
0.1834 	1
0.1841 	1
0.1848 	1
0.1855 	1
0.1862 	1
0.1869 	1
0.1876 	1
0.1883 	1
0.189 	1
0.1897 	1
0.1904 	1
0.1911 	1
0.1918 	1
0.1925 	1
0.1932 	1
0.1939 	1
0.1946 	1
0.1953 	1
0.196 	1
0.1967 	1
0.1974 	1
0.1981 	1
0.1988 	1
0.1995 	1
0.2002 	1
0.2009 	0.999996
0.2016 	0.999965
0.2023 	0.999933
0.203 	0.999902
0.2037 	0.999871
0.2044 	0.999836
0.2051 	0.999796
0.2058 	0.999771
0.2065 	0.997738
0.2072 	0.995651
0.2079 	0.993564
0.2086 	0.991478
0.2093 	0.989221
0.21 	0.986125
0.2107 	0.983586
0.2114 	0.962705
0.2121 	0.9381
0.2128 	0.913496
0.2135 	0.888891
0.2142 	0.863918
0.2149 	0.825146
0.2156 	0.787729
0.2163 	0.733572
0.217 	0.67173
0.2177 	0.609889
0.2184 	0.548047
0.2191 	0.486205
0.2198 	0.406342
0.2205 	0.322449
0.2212 	0.259382
0.2219 	0.214237
0.2226 	0.169092
0.2233 	0.123947
0.224 	0.0788019
0.2247 	0.057138
0.2254 	0.0416865
0.2261 	0.0291094
0.2268 	0.0230485
0.2275 	0.0169879
0.2282 	0.0109272
0.2289 	0.00486662
0.2296 	0.00216055
0.2303 	0.0016325
0.231 	0.00110789
0.2317 	0.000889581
0.2324 	0.000671293
0.2331 	0.000453004
0.2338 	0.000234716
0.2345 	0.000105776
0.2352 	8.16815e-05
0.2359 	5.46005e-05
0.2366 	4.41405e-05
0.2373 	3.36815e-05
0.238 	2.32226e-05
0.2387 	1.27636e-05
0.2394 	5.24433e-06
0.2401 	4.13934e-06
0.2408 	2.73044e-06
0.2415 	2.20207e-06
0.2422 	1.69814e-06
0.2429 	1.1942e-06
0.2436 	6.90271e-07
0.2443 	2.63257e-07
0.245 	2.12044e-07
0.2457 	1.44961e-07
0.2464 	1.13009e-07
0.2471 	8.8257e-08
0.2478 	6.35052e-08
0.2485 	3.87533e-08
0.2492 	1.45991e-08
0.2499 	1.17949e-08
0.2506 	8.39388e-09
0.2513 	6.37486e-09
0.252 	5.03144e-09
0.2527 	3.68801e-09
0.2534 	2.34459e-09
0.2541 	1.00116e-09
0.2548 	7.03673e-10
0.2555 	5.16683e-10
0.2562 	3.85188e-10
0.2569 	3.08996e-10
0.2576 	2.32807e-10
0.2583 	1.56618e-10
0.259 	8.04293e-11
0.2597 	5.30649e-11
0.2604 	4.13764e-11
0.2611 	3.16822e-11
0.2618 	2.6441e-11
0.2625 	2.12007e-11
0.2632 	1.59605e-11
0.2639 	1.07203e-11
0.2646 	7.81455e-12
0.2653 	6.36485e-12
0.266 	4.99969e-12
0.2667 	4.28286e-12
0.2674 	3.56628e-12
0.2681 	2.8497e-12
0.2688 	2.13312e-12
0.2695 	1.63065e-12
0.2702 	1.36796e-12
0.2709 	1.08607e-12
0.2716 	9.46498e-13
0.2723 	8.07037e-13
0.273 	6.67577e-13
0.2737 	5.28116e-13
0.2744 	4.15665e-13
0.2751 	3.60324e-13
0.2758 	2.93399e-13
0.2765 	2.58524e-13
0.2772 	2.24634e-13
0.2779 	1.90743e-13
0.2786 	1.56853e-13
0.2793 	1.26153e-13
0.28 	1.10898e-13
0.2807 	9.13941e-14
0.2814 	7.9431e-14
0.2821 	6.90517e-14
0.2828 	5.86724e-14
0.2835 	4.82932e-14
0.2842 	3.80711e-14
0.2849 	3.32028e-14
0.2856 	2.69918e-14
0.2863 	2.27689e-14
0.287 	1.95705e-14
0.2877 	1.63722e-14
0.2884 	1.31739e-14
0.2891 	9.97556e-15
0.2898 	8.4539e-15
0.2905 	6.77452e-15
0.2912 	5.49128e-15
0.2919 	4.67094e-15
0.2926 	3.85084e-15
0.2933 	3.03073e-15
0.294 	2.21062e-15
0.2947 	1.79223e-15
0.2954 	1.43621e-15
0.2961 	1.11922e-15
0.2968 	9.47544e-16
0.2975 	7.7601e-16
0.2982 	6.04477e-16
0.2989 	4.32943e-16
0.2996 	3.33407e-16
0.3003 	2.70246e-16
0.301 	2.0384e-16
0.3017 	1.72618e-16
0.3024 	1.41439e-16
0.3031 	1.1026e-16
0.3038 	7.90802e-17
0.3045 	5.80612e-17
0.3052 	4.7778e-17
0.3059 	3.5188e-17
0.3066 	2.98802e-17
0.3073 	2.45809e-17
0.308 	1.92816e-17
0.3087 	1.39823e-17
0.3094 	9.86182e-18
0.3101 	8.21094e-18
0.3108 	6.00982e-18
0.3115 	5.0871e-18
0.3122 	4.20457e-18
0.3129 	3.32203e-18
0.3136 	2.43949e-18
0.3143 	1.66215e-18
0.315 	1.3894e-18
0.3157 	1.04616e-18
0.3164 	8.65412e-19
0.3171 	7.18681e-19
0.3178 	5.71949e-19
0.3185 	4.25218e-19
0.3192 	2.81429e-19
0.3199 	2.33296e-19
0.3206 	1.80773e-19
0.3213 	1.47107e-19
0.322 	1.2248e-19
0.3227 	9.78531e-20
0.3234 	7.32264e-20
0.3241 	4.85997e-20
0.3248 	3.84241e-20
0.3255 	2.99703e-20
0.3262 	2.38792e-20
0.3269 	1.98284e-20
0.3276 	1.57776e-20
0.3283 	1.17267e-20
0.329 	7.67588e-21
0.3297 	5.68915e-21
0.3304 	4.40714e-21
0.3311 	3.398e-21
0.3318 	2.80516e-21
0.3325 	2.21228e-21
0.3332 	1.61941e-21
0.3339 	1.02653e-21
0.3346 	6.95823e-22
0.3353 	5.3648e-22
0.336 	3.97629e-22
0.3367 	3.2666e-22
0.3374 	2.55687e-22
0.3381 	1.84713e-22
0.3388 	1.13739e-22
0.3395 	6.8317e-23
0.3402 	5.27351e-23
0.3409 	3.75686e-23
0.3416 	3.07682e-23
0.3423 	2.39669e-23
0.343 	1.71656e-23
0.3437 	1.03643e-23
0.3444 	5.3398e-24
0.3451 	4.14021e-24
0.3458 	2.86428e-24
0.3465 	2.3226e-24
0.3472 	1.80408e-24
0.3479 	1.28556e-24
0.3486 	7.6704e-25
0.3493 	3.26168e-25
0.35 	2.54402e-25
0.3507 	1.76423e-25
0.3514 	1.37403e-25
0.3521 	1.06558e-25
0.3528 	7.57134e-26
0.3535 	4.48685e-26
0.3542 	1.48831e-26
0.3549 	1.16477e-26
0.3556 	8.13723e-27
0.3563 	6.07764e-27
0.357 	4.71013e-27
0.3577 	3.34263e-27
0.3584 	1.97513e-27
0.3591 	6.0762e-28
0.3598 	3.66198e-28
0.3605 	2.58366e-28
0.3612 	1.84977e-28
0.3619 	1.43454e-28
0.3626 	1.01921e-28
0.3633 	6.03887e-29
0.364 	1.88561e-29
0.3647 	6.90788e-30
0.3654 	4.93015e-30
0.3661 	3.38792e-30
0.3668 	2.63387e-30
0.3675 	1.87901e-30
0.3682 	1.12414e-30
0.3689 	3.69275e-31
0.3696 	5.99968e-32
0.3703 	4.33599e-32
0.371 	2.87764e-32
0.3717 	2.24837e-32
0.3724 	1.61756e-32
0.3731 	9.86758e-33
0.3738 	3.55953e-33
0.3745 	1.39518e-34
0.3752 	1.03068e-34
0.3759 	6.7424e-35
0.3766 	5.3138e-35
0.3773 	3.87743e-35
0.378 	2.44106e-35
0.3787 	1.00469e-35
0.3794 	2.38487e-37
0.3801 	2.07614e-37
0.3808 	1.61588e-37
0.3815 	1.31984e-37
0.3822 	1.02573e-37
0.3829 	7.31615e-38
0.3836 	4.37504e-38
0.3843 	1.92403e-38
0.385 	1.78202e-38
0.3857 	1.4502e-38
0.3864 	1.17843e-38
0.3871 	9.15327e-39
0.3878 	6.52226e-39
0.3885 	3.89125e-39
0.3892 	1.34196e-39
0.3899 	1.23185e-39
0.3906 	1.01074e-39
0.3913 	8.11192e-40
0.392 	6.26802e-40
0.3927 	4.42413e-40
0.3934 	2.58023e-40
0.3941 	7.36339e-41
0.3948 	5.04341e-41
0.3955 	4.26394e-41
0.3962 	3.41811e-41
0.3969 	2.65596e-41
0.3976 	1.89258e-41
0.3983 	1.12919e-41
0.399 	3.6581e-42
0.3997 	1.67528e-42
0.4004 	1.46365e-42
0.4011 	1.17125e-42
0.4018 	9.13323e-43
0.4025 	6.54075e-43
0.4032 	3.94827e-43
0.4039 	1.35579e-43
0.4046 	3.29423e-44
0.4053 	3.02098e-44
0.406 	2.42689e-44
0.4067 	1.9029e-44
0.4074 	1.3741e-44
0.4081 	8.45303e-45
0.4088 	3.16505e-45
0.4095 	3.25361e-46
0.4102 	3.18245e-46
0.4109 	2.57772e-46
0.4116 	2.03514e-46
0.4123 	1.48492e-46
0.413 	9.34701e-47
0.4137 	3.8448e-47
0.4144 	1.01421e-48
0.4151 	1.07739e-48
0.4158 	8.82626e-49
0.4165 	7.0231e-49
0.4172 	5.1876e-49
0.4179 	3.35211e-49
0.4186 	1.51661e-49
0.4193 	4.98295e-52
0.42 	5.78963e-52
0.4207 	4.79714e-52
0.4214 	3.84675e-52
0.4221 	2.87696e-52
0.4228 	1.90717e-52
0.4235 	9.37387e-53
0.4242 	2.77898e-56
0.4249 	3.30677e-56
0.4256 	2.89009e-56
0.4263 	2.33576e-56
0.427 	1.76736e-56
0.4277 	1.19896e-56
0.4284 	6.30565e-57
0.4291 	6.2165e-58
0.4298 	2.53398e-60
0.4305 	2.32249e-60
0.4312 	1.88299e-60
0.4319 	1.44093e-60
0.4326 	9.97907e-61
0.4333 	5.54887e-61
0.434 	1.11866e-61
0.4347 	4.30555e-64
0.4354 	4.17052e-64
0.4361 	3.40273e-64
0.4368 	2.63349e-64
0.4375 	1.85772e-64
0.4382 	1.08194e-64
0.4389 	3.06169e-65
0.4396 	2.81689e-68
0.4403 	2.86853e-68
0.441 	2.35028e-68
0.4417 	1.83796e-68
0.4424 	1.31839e-68
0.4431 	7.98821e-69
0.4438 	2.79249e-69
0.4445 	2.52106e-72
0.4452 	2.69973e-72
0.4459 	2.22095e-72
0.4466 	1.75315e-72
0.4473 	1.27673e-72
0.448 	8.00314e-73
0.4487 	3.23897e-73
0.4494 	6.44564e-77
0.4501 	3.06898e-77
0.4508 	7.33503e-77
0.4515 	-1.22147e-76
0.4522 	-1.7109e-76
0.4529 	-2.20032e-76
0.4536 	-2.68975e-76
0.4543 	-3.38006e-76
0.455 	-5.00036e-76
0.4557 	-3.39864e-76
0.4564 	-3.72987e-76
0.4571 	-3.74506e-76
0.4578 	-3.76025e-76
0.4585 	-3.77544e-76
0.4592 	-3.85513e-76
0.4599 	-5.71575e-76
0.4606 	-4.39197e-76
0.4613 	-3.9381e-76
0.462 	-3.94281e-76
0.4627 	-3.94751e-76
0.4634 	-3.95221e-76
0.4641 	-3.95691e-76
0.4648 	-5.63214e-76
0.4655 	-4.82813e-76
0.4662 	-3.92635e-76
0.4669 	-3.92272e-76
0.4676 	-3.92335e-76
0.4683 	-3.92398e-76
0.469 	-3.92461e-76
0.4697 	-5.27874e-76
0.4704 	-5.01977e-76
0.4711 	-3.78426e-76
0.4718 	-3.70735e-76
0.4725 	-3.70553e-76
0.4732 	-3.7037e-76
0.4739 	-3.70188e-76
0.4746 	-4.70878e-76
0.4753 	-4.94436e-76
0.476 	-3.53847e-76
0.4767 	-3.30981e-76
0.4774 	-3.30541e-76
0.4781 	-3.30101e-76
0.4788 	-3.2966e-76
0.4795 	-3.96822e-76
0.4802 	-4.58886e-76
0.4809 	-3.20369e-76
0.4816 	-2.80875e-76
0.4823 	-2.80265e-76
0.483 	-2.79656e-76
0.4837 	-2.79046e-76
0.4844 	-3.17743e-76
0.4851 	-4.0454e-76
0.4858 	-2.82303e-76
0.4865 	-2.31469e-76
0.4872 	-2.30854e-76
0.4879 	-2.30238e-76
0.4886 	-2.29623e-76
0.4893 	-2.46876e-76
0.49 	-3.4616e-76
0.4907 	-2.46343e-76
0.4914 	-1.89452e-76
0.4921 	-1.88956e-76
0.4928 	-1.88459e-76
0.4935 	-1.87963e-76
0.4942 	-1.90386e-76
0.4949 	-2.70602e-76
0.4956 	-2.12957e-76
0.4963 	-1.57233e-76
0.497 	-1.56931e-76
0.4977 	-1.5663e-76
0.4984 	-1.56329e-76
0.4991 	-1.56028e-76
0.4998 	-2.14121e-76
0.5005 	-1.86067e-76
0.5012 	-1.39445e-76
0.5019 	-1.3727e-76
0.5026 	-1.37265e-76
0.5033 	-1.37261e-76
0.504 	-1.37256e-76
0.5047 	-1.78053e-76
0.5054 	-1.70284e-76
0.5061 	-1.34892e-76
0.5068 	-1.33996e-76
0.5075 	-1.34487e-76
0.5082 	-1.34978e-76
0.5089 	-1.3547e-76
0.5096 	-1.65416e-76
0.5103 	-1.72558e-76
0.511 	-1.42684e-76
0.5117 	-1.53004e-76
0.5124 	-1.54313e-76
0.5131 	-1.55621e-76
0.5138 	-1.5693e-76
0.5145 	-1.80919e-76
0.5152 	-2.02625e-76
0.5159 	-1.66063e-76
0.5166 	-2.02069e-76
0.5173 	-2.04594e-76
0.518 	-2.07119e-76
0.5187 	-2.09644e-76
0.5194 	-2.30457e-76
0.5201 	-2.72975e-76
0.5208 	-2.15455e-76
0.5215 	-2.89914e-76
0.5222 	-2.94017e-76
0.5229 	-2.98119e-76
0.5236 	-3.02222e-76
0.5243 	-3.1962e-76
0.525 	-3.97568e-76
0.5257 	-3.22196e-76
0.5264 	-4.2291e-76
0.5271 	-4.28781e-76
0.5278 	-4.34652e-76
0.5285 	-4.40523e-76
0.5292 	-4.50178e-76
0.5299 	-5.57355e-76
0.5306 	-4.8379e-76
0.5313 	-5.98179e-76
0.532 	-6.05636e-76
0.5327 	-6.13093e-76
0.5334 	-6.20551e-76
0.5341 	-6.28008e-76
0.5348 	-7.58903e-76
0.5355 	-6.99529e-76
0.5362 	-7.76372e-76
0.5369 	-8.03032e-76
0.5376 	-8.11179e-76
0.5383 	-8.19326e-76
0.539 	-8.27474e-76
0.5397 	-9.70106e-76
0.5404 	-9.45715e-76
0.5411 	-9.23381e-76
0.5418 	-9.77761e-76
0.5425 	-9.848e-76
0.5432 	-9.9184e-76
0.5439 	-9.9888e-76
0.5446 	-1.13664e-75
0.5453 	-1.16953e-75
0.546 	-1.03343e-75
0.5467 	-1.07675e-75
0.5474 	-1.08045e-75
0.5481 	-1.08416e-75
0.5488 	-1.08786e-75
0.5495 	-1.20078e-75
0.5502 	-1.30287e-75
0.5509 	-1.08618e-75
0.5516 	-1.06483e-75
0.5523 	-1.06376e-75
0.553 	-1.06268e-75
0.5537 	-1.06161e-75
0.5544 	-1.1352e-75
0.5551 	-1.29884e-75
0.5558 	-1.06744e-75
0.5565 	-9.49582e-76
0.5572 	-9.44208e-76
0.5579 	-9.38834e-76
0.5586 	-9.3346e-76
0.5593 	-9.65357e-76
0.56 	-1.16574e-75
0.5607 	-9.6172e-76
0.5614 	-7.76214e-76
0.5621 	-7.68654e-76
0.5628 	-7.61093e-76
0.5635 	-7.53532e-76
0.5642 	-7.52463e-76
0.5649 	-9.13834e-76
0.5656 	-7.95067e-76
0.5663 	-5.93789e-76
0.567 	-5.86245e-76
0.5677 	-5.78701e-76
0.5684 	-5.71157e-76
0.5691 	-5.63612e-76
0.5698 	-6.72505e-76
0.5705 	-6.17419e-76
0.5712 	-4.45661e-76
0.5719 	-4.2462e-76
0.5726 	-4.18252e-76
0.5733 	-4.11885e-76
0.574 	-4.05518e-76
0.5747 	-4.70609e-76
0.5754 	-4.56285e-76
0.5761 	-3.33709e-76
0.5768 	-2.93123e-76
0.5775 	-2.88183e-76
0.5782 	-2.83242e-76
0.5789 	-2.78302e-76
0.5796 	-3.13618e-76
0.5803 	-3.21385e-76
0.581 	-2.41519e-76
0.5817 	-1.92552e-76
0.5824 	-1.88936e-76
0.5831 	-1.8532e-76
0.5838 	-1.81703e-76
0.5845 	-1.98475e-76
0.5852 	-2.1516e-76
0.5859 	-1.68166e-76
0.5866 	-1.20007e-76
0.5873 	-1.17509e-76
0.588 	-1.15012e-76
0.5887 	-1.12514e-76
0.5894 	-1.18892e-76
0.5901 	-1.36473e-76
0.5908 	-1.10583e-76
0.5915 	-7.07462e-77
0.5922 	-6.91219e-77
0.5929 	-6.74975e-77
0.5936 	-6.58732e-77
0.5943 	-6.71959e-77
0.595 	-8.17525e-77
0.5957 	-6.65252e-77
0.5964 	-3.93327e-77
0.5971 	-3.83409e-77
0.5978 	-3.73491e-77
0.5985 	-3.63573e-77
0.5992 	-3.57213e-77
0.5999 	-4.37562e-77
0.6006 	-3.76777e-77
0.6013 	-2.05665e-77
0.602 	-1.99994e-77
0.6027 	-1.94324e-77
0.6034 	-1.88653e-77
0.6041 	-1.82982e-77
0.6048 	-2.19723e-77
0.6055 	-2.00326e-77
0.6062 	-1.10045e-77
0.6069 	-9.78614e-78
0.6076 	-9.48331e-78
0.6083 	-9.18047e-78
0.609 	-8.87764e-78
0.6097 	-1.03252e-77
0.6104 	-9.97298e-78
0.6111 	-6.04717e-78
0.6118 	-4.48287e-78
0.6125 	-4.33217e-78
0.6132 	-4.18147e-78
0.6139 	-4.03077e-78
0.6146 	-4.53108e-78
0.6153 	-4.63892e-78
0.616 	-3.11629e-78
0.6167 	-1.91962e-78
0.6174 	-1.84987e-78
0.6181 	-1.78013e-78
0.6188 	-1.71039e-78
0.6195 	-1.85424e-78
0.6202 	-2.01305e-78
0.6209 	-1.49834e-78
0.6216 	-7.67898e-79
0.6223 	-7.37925e-79
0.623 	-7.07952e-79
0.6237 	-6.77979e-79
0.6244 	-7.07273e-79
0.6251 	-8.14457e-79
0.6258 	-6.52929e-79
0.6265 	-2.87105e-79
0.6272 	-2.75152e-79
0.6279 	-2.632e-79
0.6286 	-2.51248e-79
0.6293 	-2.51687e-79
0.63 	-3.07447e-79
0.6307 	-2.4808e-79
0.6314 	-1.00541e-79
0.6321 	-9.61174e-80
0.6328 	-9.16941e-80
0.6335 	-8.72707e-80
0.6342 	-8.37954e-80
0.6349 	-1.02922e-79
0.6356 	-8.818e-80
0.6363 	-3.31177e-80
0.637 	-3.15961e-80
0.6377 	-3.00744e-80
0.6384 	-2.85528e-80
0.6391 	-2.70311e-80
0.6398 	-3.241e-80
0.6405 	-2.9475e-80
0.6412 	-1.22043e-80
0.6419 	-9.84245e-81
0.6426 	-9.3542e-81
0.6433 	-8.86594e-81
0.644 	-8.37769e-81
0.6447 	-9.68089e-81
0.6454 	-9.3408e-81
0.6461 	-4.8488e-81
0.6468 	-2.93172e-81
0.6475 	-2.78472e-81
0.6482 	-2.63773e-81
0.6489 	-2.49073e-81
0.6496 	-2.77202e-81
0.6503 	-2.83585e-81
0.651 	-1.77214e-81
0.6517 	-8.42226e-82
0.6524 	-8.00359e-82
0.6531 	-7.58492e-82
0.6538 	-7.16624e-82
0.6545 	-7.68179e-82
0.6552 	-8.32821e-82
0.6559 	-6.07858e-82
0.6566 	-2.34182e-82
0.6573 	-2.228e-82
0.658 	-2.11419e-82
0.6587 	-2.00037e-82
0.6594 	-2.06598e-82
0.6601 	-2.37369e-82
0.6608 	-1.91287e-82
0.6615 	-6.25925e-83
0.6622 	-5.96236e-83
0.6629 	-5.66547e-83
0.6636 	-5.36858e-83
0.6643 	-5.34072e-83
0.665 	-6.50831e-83
0.6657 	-5.27794e-83
0.6664 	-1.57655e-83
0.6671 	-1.50257e-83
0.6678 	-1.4286e-83
0.6685 	-1.35462e-83
0.6692 	-1.29576e-83
0.6699 	-1.59115e-83
0.6706 	-1.36738e-83
0.6713 	-3.62565e-84
0.672 	-3.45291e-84
0.6727 	-3.28018e-84
0.6734 	-3.10744e-84
0.6741 	-2.93471e-84
0.6748 	-3.52861e-84
0.6755 	-3.21365e-84
0.6762 	-9.835e-85
0.6769 	-6.94334e-85
0.6776 	-6.57806e-85
0.6783 	-6.21277e-85
0.679 	-5.84748e-85
0.6797 	-6.79083e-85
0.6804 	-6.56034e-85
0.6811 	-2.8059e-85
0.6818 	-1.16113e-85
0.6825 	-1.0944e-85
0.6832 	-1.02768e-85
0.6839 	-9.60952e-86
0.6846 	-1.07379e-85
0.6853 	-1.10203e-85
0.686 	-6.12216e-86
0.6867 	-1.50894e-86
0.6874 	-1.4099e-86
0.6881 	-1.31086e-86
0.6888 	-1.21182e-86
0.6895 	-1.29406e-86
0.6902 	-1.41382e-86
0.6909 	-9.76526e-87
0.6916 	-1.37128e-87
0.6923 	-1.26154e-87
0.693 	-1.15181e-87
0.6937 	-1.04207e-87
0.6944 	-1.04843e-87
0.6951 	-1.22251e-87
0.6958 	-9.68656e-88
0.6965 	-3.16086e-89
0.6972 	-2.37579e-89
0.6979 	-1.59071e-89
0.6986 	-8.05636e-90
0.6993 	-1.65212e-90
0.7 	-1.65946e-90
