0 	1
0.0007 	1
0.0014 	1
0.0021 	1
0.0028 	1
0.0035 	1
0.0042 	1
0.0049 	1
0.0056 	1
0.0063 	1
0.007 	1
0.0077 	1
0.0084 	1
0.0091 	1
0.0098 	1
0.0105 	1
0.0112 	1
0.0119 	1
0.0126 	1
0.0133 	1
0.014 	1
0.0147 	1
0.0154 	1
0.0161 	1
0.0168 	1
0.0175 	1
0.0182 	1
0.0189 	1
0.0196 	1
0.0203 	1
0.021 	1
0.0217 	1
0.0224 	1
0.0231 	1
0.0238 	1
0.0245 	1
0.0252 	1
0.0259 	1
0.0266 	1
0.0273 	1
0.028 	1
0.0287 	1
0.0294 	1
0.0301 	1
0.0308 	1
0.0315 	1
0.0322 	1
0.0329 	1
0.0336 	1
0.0343 	1
0.035 	1
0.0357 	1
0.0364 	1
0.0371 	1
0.0378 	1
0.0385 	1
0.0392 	1
0.0399 	1
0.0406 	1
0.0413 	1
0.042 	1
0.0427 	1
0.0434 	1
0.0441 	1
0.0448 	1
0.0455 	1
0.0462 	1
0.0469 	1
0.0476 	1
0.0483 	1
0.049 	1
0.0497 	1
0.0504 	1
0.0511 	1
0.0518 	1
0.0525 	1
0.0532 	1
0.0539 	1
0.0546 	1
0.0553 	1
0.056 	1
0.0567 	1
0.0574 	1
0.0581 	1
0.0588 	1
0.0595 	1
0.0602 	1
0.0609 	1
0.0616 	1
0.0623 	1
0.063 	1
0.0637 	1
0.0644 	1
0.0651 	1
0.0658 	1
0.0665 	1
0.0672 	1
0.0679 	1
0.0686 	1
0.0693 	1
0.07 	1
0.0707 	1
0.0714 	1
0.0721 	1
0.0728 	1
0.0735 	1
0.0742 	1
0.0749 	1
0.0756 	1
0.0763 	1
0.077 	1
0.0777 	1
0.0784 	1
0.0791 	1
0.0798 	1
0.0805 	1
0.0812 	1
0.0819 	1
0.0826 	1
0.0833 	1
0.084 	1
0.0847 	1
0.0854 	1
0.0861 	1
0.0868 	1
0.0875 	1
0.0882 	1
0.0889 	1
0.0896 	1
0.0903 	1
0.091 	1
0.0917 	1
0.0924 	1
0.0931 	1
0.0938 	1
0.0945 	1
0.0952 	1
0.0959 	1
0.0966 	1
0.0973 	1
0.098 	1
0.0987 	1
0.0994 	1
0.1001 	1
0.1008 	1
0.1015 	1
0.1022 	1
0.1029 	1
0.1036 	1
0.1043 	1
0.105 	1
0.1057 	1
0.1064 	1
0.1071 	1
0.1078 	1
0.1085 	1
0.1092 	1
0.1099 	1
0.1106 	1
0.1113 	1
0.112 	1
0.1127 	1
0.1134 	1
0.1141 	1
0.1148 	1
0.1155 	1
0.1162 	1
0.1169 	1
0.1176 	1
0.1183 	1
0.119 	1
0.1197 	1
0.1204 	1
0.1211 	1
0.1218 	1
0.1225 	1
0.1232 	1
0.1239 	1
0.1246 	1
0.1253 	1
0.126 	1
0.1267 	1
0.1274 	1
0.1281 	1
0.1288 	1
0.1295 	1
0.1302 	1
0.1309 	1
0.1316 	1
0.1323 	1
0.133 	1
0.1337 	1
0.1344 	1
0.1351 	1
0.1358 	1
0.1365 	1
0.1372 	1
0.1379 	1
0.1386 	1
0.1393 	1
0.14 	1
0.1407 	1
0.1414 	1
0.1421 	1
0.1428 	1
0.1435 	1
0.1442 	1
0.1449 	1
0.1456 	1
0.1463 	1
0.147 	1
0.1477 	1
0.1484 	1
0.1491 	1
0.1498 	1
0.1505 	1
0.1512 	1
0.1519 	1
0.1526 	1
0.1533 	1
0.154 	1
0.1547 	1
0.1554 	1
0.1561 	1
0.1568 	1
0.1575 	1
0.1582 	1
0.1589 	1
0.1596 	1
0.1603 	1
0.161 	1
0.1617 	1
0.1624 	1
0.1631 	1
0.1638 	1
0.1645 	1
0.1652 	1
0.1659 	1
0.1666 	1
0.1673 	1
0.168 	1
0.1687 	1
0.1694 	1
0.1701 	1
0.1708 	1
0.1715 	1
0.1722 	1
0.1729 	1
0.1736 	1
0.1743 	1
0.175 	1
0.1757 	1
0.1764 	1
0.1771 	1
0.1778 	1
0.1785 	1
0.1792 	1
0.1799 	1
0.1806 	1
0.1813 	1
0.182 	1
0.1827 	1
0.1834 	1
0.1841 	1
0.1848 	1
0.1855 	1
0.1862 	1
0.1869 	1
0.1876 	1
0.1883 	1
0.189 	1
0.1897 	1
0.1904 	1
0.1911 	1
0.1918 	1
0.1925 	1
0.1932 	1
0.1939 	1
0.1946 	1
0.1953 	1
0.196 	1
0.1967 	1
0.1974 	1
0.1981 	1
0.1988 	1
0.1995 	1
0.2002 	1
0.2009 	1
0.2016 	1
0.2023 	1
0.203 	1
0.2037 	1
0.2044 	1
0.2051 	1
0.2058 	1
0.2065 	1
0.2072 	1
0.2079 	1
0.2086 	1
0.2093 	1
0.21 	1
0.2107 	1
0.2114 	1
0.2121 	1
0.2128 	1
0.2135 	1
0.2142 	1
0.2149 	1
0.2156 	1
0.2163 	1
0.217 	1
0.2177 	1
0.2184 	1
0.2191 	1
0.2198 	1
0.2205 	1
0.2212 	1
0.2219 	1
0.2226 	1
0.2233 	1
0.224 	1
0.2247 	1
0.2254 	1
0.2261 	1
0.2268 	1
0.2275 	1
0.2282 	1
0.2289 	1
0.2296 	1
0.2303 	1
0.231 	1
0.2317 	1
0.2324 	1
0.2331 	1
0.2338 	1
0.2345 	1
0.2352 	1
0.2359 	1
0.2366 	1
0.2373 	1
0.238 	1
0.2387 	1
0.2394 	1
0.2401 	1
0.2408 	1
0.2415 	1
0.2422 	1
0.2429 	1
0.2436 	1
0.2443 	1
0.245 	1
0.2457 	1
0.2464 	1
0.2471 	1
0.2478 	1
0.2485 	1
0.2492 	1
0.2499 	1
0.2506 	1
0.2513 	1
0.252 	1
0.2527 	1
0.2534 	1
0.2541 	0.999999
0.2548 	0.999999
0.2555 	0.999986
0.2562 	0.999948
0.2569 	0.999909
0.2576 	0.999871
0.2583 	0.999832
0.259 	0.999793
0.2597 	0.999755
0.2604 	0.999334
0.2611 	0.99721
0.2618 	0.995086
0.2625 	0.992961
0.2632 	0.990837
0.2639 	0.988712
0.2646 	0.986587
0.2653 	0.9839
0.266 	0.960892
0.2667 	0.937882
0.2674 	0.914872
0.2681 	0.891861
0.2688 	0.86885
0.2695 	0.845839
0.2702 	0.819915
0.2709 	0.764135
0.2716 	0.704752
0.2723 	0.645367
0.273 	0.585982
0.2737 	0.526598
0.2744 	0.467213
0.2751 	0.394589
0.2758 	0.338794
0.2765 	0.292183
0.2772 	0.245575
0.2779 	0.198966
0.2786 	0.152357
0.2793 	0.105748
0.28 	0.06913
0.2807 	0.0519297
0.2814 	0.0434587
0.2821 	0.0349895
0.2828 	0.0265203
0.2835 	0.0180512
0.2842 	0.00958204
0.2849 	0.00307555
0.2856 	0.0021836
0.2863 	0.00184387
0.287 	0.00150425
0.2877 	0.00116462
0.2884 	0.000824999
0.2891 	0.000485375
0.2898 	0.000175718
0.2905 	0.000129354
0.2912 	0.00010989
0.2919 	9.04313e-05
0.2926 	7.09729e-05
0.2933 	5.15145e-05
0.294 	3.20561e-05
0.2947 	1.25977e-05
0.2954 	8.47071e-06
0.2961 	7.1887e-06
0.2968 	5.90693e-06
0.2975 	4.62523e-06
0.2982 	3.34354e-06
0.2989 	2.06184e-06
0.2996 	7.80138e-07
0.3003 	3.9279e-07
0.301 	3.33755e-07
0.3017 	2.74726e-07
0.3024 	2.15701e-07
0.3031 	1.56676e-07
0.3038 	9.7651e-08
0.3045 	3.86259e-08
0.3052 	1.50507e-08
0.3059 	1.19505e-08
0.3066 	9.84979e-09
0.3073 	7.74923e-09
0.308 	5.64866e-09
0.3087 	3.5481e-09
0.3094 	1.44753e-09
0.3101 	4.00556e-10
0.3108 	2.87311e-10
0.3115 	2.37679e-10
0.3122 	1.88053e-10
0.3129 	1.38427e-10
0.3136 	8.88002e-11
0.3143 	3.91738e-11
0.315 	8.59874e-12
0.3157 	7.76728e-12
0.3164 	7.4775e-12
0.3171 	7.18734e-12
0.3178 	6.89718e-12
0.3185 	6.60703e-12
0.3192 	6.31687e-12
0.3199 	6.0856e-12
0.3206 	5.97186e-12
0.3213 	5.75404e-12
0.322 	5.53594e-12
0.3227 	5.31783e-12
0.3234 	5.09972e-12
0.3241 	4.88162e-12
0.3248 	4.65082e-12
0.3255 	4.33174e-12
0.3262 	4.05866e-12
0.3269 	3.78607e-12
0.3276 	3.51351e-12
0.3283 	3.24095e-12
0.329 	2.96839e-12
0.3297 	2.69583e-12
0.3304 	2.47479e-12
0.3311 	2.30179e-12
0.3318 	2.12916e-12
0.3325 	1.95663e-12
0.3332 	1.7841e-12
0.3339 	1.61157e-12
0.3346 	1.43904e-12
0.3353 	1.28269e-12
0.336 	1.17933e-12
0.3367 	1.07621e-12
0.3374 	9.73218e-13
0.3381 	8.70229e-13
0.3388 	7.67239e-13
0.3395 	6.64249e-13
0.3402 	5.72463e-13
0.3409 	5.15534e-13
0.3416 	4.64205e-13
0.3423 	4.13004e-13
0.343 	3.61802e-13
0.3437 	3.106e-13
0.3444 	2.59399e-13
0.3451 	2.16619e-13
0.3458 	1.88497e-13
0.3465 	1.678e-13
0.3472 	1.47185e-13
0.3479 	1.2657e-13
0.3486 	1.05955e-13
0.3493 	8.53401e-14
0.35 	6.89965e-14
0.3507 	5.71681e-14
0.3514 	5.03665e-14
0.3521 	4.36052e-14
0.3528 	3.6844e-14
0.3535 	3.00827e-14
0.3542 	2.33214e-14
0.3549 	1.76232e-14
0.3556 	1.40743e-14
0.3563 	1.22831e-14
0.357 	1.05068e-14
0.3577 	8.73053e-15
0.3584 	6.95424e-15
0.3591 	5.17796e-15
0.3598 	3.5368e-15
0.3605 	2.72592e-15
0.3612 	2.35957e-15
0.3619 	1.99683e-15
0.3626 	1.63436e-15
0.3633 	1.27189e-15
0.364 	9.0942e-16
0.3647 	5.46952e-16
0.3654 	3.99448e-16
0.3661 	3.434e-16
0.3668 	2.879e-16
0.3675 	2.32549e-16
0.3682 	1.77198e-16
0.3689 	1.21848e-16
0.3696 	6.64968e-17
0.3703 	4.18152e-17
0.371 	3.57531e-17
0.3717 	2.9748e-17
0.3724 	2.37744e-17
0.3731 	1.78008e-17
0.3738 	1.18272e-17
0.3745 	5.8536e-18
0.3752 	3.13164e-18
0.3759 	2.45239e-18
0.3766 	2.03098e-18
0.3773 	1.61323e-18
0.378 	1.19549e-18
0.3787 	7.77739e-19
0.3794 	3.59992e-19
0.3801 	1.55558e-19
0.3808 	1.05394e-19
0.3815 	8.80487e-20
0.3822 	7.09219e-20
0.3829 	5.37951e-20
0.3836 	3.66683e-20
0.3843 	1.95415e-20
0.385 	9.49948e-21
0.3857 	6.99221e-21
0.3864 	6.17978e-21
0.3871 	5.37134e-21
0.3878 	4.5629e-21
0.3885 	3.75446e-21
0.3892 	2.94602e-21
0.3899 	2.27552e-21
0.3906 	1.83247e-21
0.3913 	1.61115e-21
0.392 	1.38928e-21
0.3927 	1.1674e-21
0.3934 	9.45522e-22
0.3941 	7.23646e-22
0.3948 	5.189e-22
0.3955 	3.90041e-22
0.3962 	3.36733e-22
0.3969 	2.83435e-22
0.3976 	2.30139e-22
0.3983 	1.76842e-22
0.399 	1.23546e-22
0.3997 	7.02491e-23
0.4004 	5.00517e-23
0.4011 	4.29515e-23
0.4018 	3.58562e-23
0.4025 	2.87624e-23
0.4032 	2.16685e-23
0.4039 	1.45747e-23
0.4046 	7.48083e-24
0.4053 	4.49027e-24
0.406 	3.83141e-24
0.4067 	3.17307e-24
0.4074 	2.51502e-24
0.4081 	1.85697e-24
0.4088 	1.19891e-24
0.4095 	5.40865e-25
0.4102 	2.64396e-25
0.4109 	1.99686e-25
0.4116 	1.64481e-25
0.4123 	1.29324e-25
0.413 	9.41674e-26
0.4137 	5.90108e-26
0.4144 	2.38543e-26
0.4151 	7.81698e-27
0.4158 	4.52107e-27
0.4165 	3.72025e-27
0.4172 	2.92202e-27
0.4179 	2.1238e-27
0.4186 	1.32557e-27
0.4193 	5.27338e-28
0.42 	7.63083e-29
0.4207 	2.51751e-29
0.4214 	2.07771e-29
0.4221 	1.64101e-29
0.4228 	1.20432e-29
0.4235 	7.67628e-30
0.4242 	3.30934e-30
0.4249 	8.19276e-32
0.4256 	1.68831e-32
0.4263 	1.39872e-32
0.427 	1.11295e-32
0.4277 	8.27174e-33
0.4284 	5.41402e-33
0.4291 	2.5563e-33
0.4298 	5.77125e-36
0.4305 	7.51992e-37
0.4312 	6.25314e-37
0.4319 	5.01018e-37
0.4326 	3.76906e-37
0.4333 	2.52794e-37
0.434 	1.28681e-37
0.4347 	4.56898e-39
0.4354 	1.65127e-41
0.4361 	1.38096e-41
0.4368 	1.11369e-41
0.4375 	8.47257e-42
0.4382 	5.8082e-42
0.4389 	3.14382e-42
0.4396 	4.79444e-43
0.4403 	1.49266e-45
0.441 	1.25351e-45
0.4417 	1.01686e-45
0.4424 	7.81599e-46
0.4431 	5.46333e-46
0.4438 	3.11068e-46
0.4445 	7.5803e-47
0.4452 	3.55606e-49
0.4459 	8.13044e-50
0.4466 	6.63479e-50
0.4473 	5.15098e-50
0.448 	3.66716e-50
0.4487 	2.18335e-50
0.4494 	6.99532e-51
0.4501 	1.24852e-52
0.4508 	6.96807e-53
0.4515 	5.72522e-53
0.4522 	4.49454e-53
0.4529 	3.26385e-53
0.4536 	2.03316e-53
0.4543 	8.02467e-54
0.455 	4.93782e-55
0.4557 	3.69543e-55
0.4564 	3.04718e-55
0.4571 	2.40821e-55
0.4578 	1.76923e-55
0.4585 	1.13026e-55
0.4592 	4.91293e-56
0.4599 	1.15994e-57
0.4606 	8.43513e-58
0.4613 	6.98039e-58
0.462 	5.55491e-58
0.4627 	4.12943e-58
0.4634 	2.70396e-58
0.4641 	1.27848e-58
0.4648 	7.28213e-61
0.4655 	5.01909e-61
0.4662 	4.17384e-61
0.4669 	3.34398e-61
0.4676 	2.5153e-61
0.4683 	1.68662e-61
0.469 	8.57938e-62
0.4697 	2.92572e-63
0.4704 	6.65383e-65
0.4711 	5.55887e-65
0.4718 	4.48137e-65
0.4725 	3.40863e-65
0.4732 	2.3359e-65
0.4739 	1.26316e-65
0.4746 	1.90424e-66
0.4753 	6.59922e-69
0.476 	5.52844e-69
0.4767 	4.47944e-69
0.4774 	3.44254e-69
0.4781 	2.40563e-69
0.4788 	1.36873e-69
0.4795 	3.31828e-70
0.4802 	6.9587e-73
0.4809 	5.36878e-73
0.4816 	4.32012e-73
0.4823 	3.29762e-73
0.483 	2.27512e-73
0.4837 	1.25262e-73
0.4844 	2.30126e-74
0.4851 	-2.99484e-74
0.4858 	-2.73117e-74
0.4865 	-2.99778e-74
0.4872 	-2.99901e-74
0.4879 	-3.00024e-74
0.4886 	-3.00146e-74
0.4893 	-3.00269e-74
0.49 	-4.16638e-74
0.4907 	-3.21354e-74
0.4914 	-3.48646e-74
0.4921 	-3.4867e-74
0.4928 	-3.48694e-74
0.4935 	-3.48718e-74
0.4942 	-3.48742e-74
0.4949 	-4.38377e-74
0.4956 	-3.60689e-74
0.4963 	-3.84677e-74
0.497 	-3.84692e-74
0.4977 	-3.84708e-74
0.4984 	-3.84724e-74
0.4991 	-3.8474e-74
0.4998 	-4.29493e-74
0.5005 	-3.89475e-74
0.5012 	-4.04284e-74
0.5019 	-4.05348e-74
0.5026 	-4.05354e-74
0.5033 	-4.0536e-74
0.504 	-4.05366e-74
0.5047 	-4.05372e-74
0.5054 	-4.0588e-74
0.5061 	-4.08752e-74
0.5068 	-4.09365e-74
0.5075 	-4.09361e-74
0.5082 	-4.09357e-74
0.5089 	-4.09353e-74
0.5096 	-4.09349e-74
0.5103 	-4.09075e-74
0.511 	-4.00442e-74
0.5117 	-3.97349e-74
0.5124 	-3.97336e-74
0.5131 	-3.97322e-74
0.5138 	-3.97308e-74
0.5145 	-3.97294e-74
0.5152 	-4.48201e-74
0.5159 	-3.8083e-74
0.5166 	-3.7156e-74
0.5173 	-3.71538e-74
0.518 	-3.71515e-74
0.5187 	-3.71493e-74
0.5194 	-3.7147e-74
0.5201 	-4.82769e-74
0.5208 	-3.52105e-74
0.5215 	-3.35409e-74
0.5222 	-3.3538e-74
0.5229 	-3.35351e-74
0.5236 	-3.35322e-74
0.5243 	-3.35293e-74
0.525 	-4.95788e-74
0.5257 	-3.16872e-74
0.5264 	-2.9287e-74
0.5271 	-2.92836e-74
0.5278 	-2.92803e-74
0.5285 	-2.9277e-74
0.5292 	-2.92737e-74
0.5299 	-3.84493e-74
0.5306 	-2.77881e-74
0.5313 	-2.47905e-74
0.532 	-2.47871e-74
0.5327 	-2.47836e-74
0.5334 	-2.47801e-74
0.5341 	-2.47767e-74
0.5348 	-2.82673e-74
0.5355 	-2.37759e-74
0.5362 	-2.06221e-74
0.5369 	-2.03937e-74
0.5376 	-2.03903e-74
0.5383 	-2.03869e-74
0.539 	-2.03835e-74
0.5397 	-2.03801e-74
0.5404 	-1.98786e-74
0.5411 	-1.69833e-74
0.5418 	-1.63605e-74
0.5425 	-1.63573e-74
0.5432 	-1.63542e-74
0.5439 	-1.6351e-74
0.5446 	-1.63479e-74
0.5453 	-1.62714e-74
0.546 	-1.3745e-74
0.5467 	-1.28409e-74
0.5474 	-1.28381e-74
0.5481 	-1.28352e-74
0.5488 	-1.28324e-74
0.5495 	-1.28296e-74
0.5502 	-1.47047e-74
0.5509 	-1.09525e-74
0.5516 	-9.89357e-75
0.5523 	-9.89109e-75
0.553 	-9.88862e-75
0.5537 	-9.88614e-75
0.5544 	-9.88367e-75
0.5551 	-1.31861e-74
0.5558 	-8.60741e-75
0.5565 	-7.50461e-75
0.5572 	-7.50249e-75
0.5579 	-7.50036e-75
0.5586 	-7.49824e-75
0.5593 	-7.49611e-75
0.56 	-1.1502e-74
0.5607 	-6.6792e-75
0.5614 	-5.61206e-75
0.5621 	-5.61027e-75
0.5628 	-5.60848e-75
0.5635 	-5.60669e-75
0.5642 	-5.6049e-75
0.5649 	-7.6283e-75
0.5656 	-5.11776e-75
0.5663 	-4.13202e-75
0.567 	-4.13054e-75
0.5677 	-4.12906e-75
0.5684 	-4.12759e-75
0.5691 	-4.12611e-75
0.5698 	-4.84078e-75
0.5705 	-3.86577e-75
0.5712 	-3.0423e-75
0.5719 	-2.98238e-75
0.5726 	-2.98119e-75
0.5733 	-2.98e-75
0.574 	-2.97881e-75
0.5747 	-2.97762e-75
0.5754 	-2.86929e-75
0.5761 	-2.23756e-75
0.5768 	-2.10144e-75
0.5775 	-2.10048e-75
0.5782 	-2.09952e-75
0.5789 	-2.09856e-75
0.5796 	-2.09761e-75
0.5803 	-2.08396e-75
0.581 	-1.60933e-75
0.5817 	-1.4393e-75
0.5824 	-1.43849e-75
0.5831 	-1.43768e-75
0.5838 	-1.43687e-75
0.5845 	-1.43606e-75
0.5852 	-1.76337e-75
0.5859 	-1.12972e-75
0.5866 	-9.56559e-76
0.5873 	-9.55829e-76
0.588 	-9.55099e-76
0.5887 	-9.54369e-76
0.5894 	-9.53639e-76
0.5901 	-1.47405e-75
0.5908 	-7.73189e-76
0.5915 	-6.17217e-76
0.5922 	-6.16543e-76
0.5929 	-6.15868e-76
0.5936 	-6.15194e-76
0.5943 	-6.1452e-76
0.595 	-1.16424e-75
0.5957 	-5.15773e-76
0.5964 	-3.87254e-76
0.5971 	-3.86655e-76
0.5978 	-3.86057e-76
0.5985 	-3.85458e-76
0.5992 	-3.8486e-76
0.5999 	-6.1693e-76
0.6006 	-3.35417e-76
0.6013 	-2.36569e-76
0.602 	-2.36079e-76
0.6027 	-2.3559e-76
0.6034 	-2.35101e-76
0.6041 	-2.34611e-76
0.6048 	-3.00679e-76
0.6055 	-2.12761e-76
0.6062 	-1.45624e-76
0.6069 	-1.4049e-76
0.6076 	-1.40125e-76
0.6083 	-1.39761e-76
0.609 	-1.39396e-76
0.6097 	-1.39031e-76
0.6104 	-1.31727e-76
0.6111 	-9.05884e-77
0.6118 	-8.15754e-77
0.6125 	-8.13238e-77
0.6132 	-8.10723e-77
0.6139 	-8.08207e-77
0.6146 	-8.05691e-77
0.6153 	-7.96585e-77
0.616 	-5.51292e-77
0.6167 	-4.62633e-77
0.6174 	-4.60994e-77
0.6181 	-4.59355e-77
0.6188 	-4.57715e-77
0.6195 	-4.56076e-77
0.6202 	-5.97251e-77
0.6209 	-3.28251e-77
0.6216 	-2.56481e-77
0.6223 	-2.55458e-77
0.623 	-2.54435e-77
0.6237 	-2.53411e-77
0.6244 	-2.52388e-77
0.6251 	-4.30674e-77
0.6258 	-1.9125e-77
0.6265 	-1.39105e-77
0.6272 	-1.38489e-77
0.6279 	-1.37873e-77
0.6286 	-1.37257e-77
0.6293 	-1.3664e-77
0.63 	-2.90029e-77
0.6307 	-1.09052e-77
0.6314 	-7.38558e-78
0.6321 	-7.34959e-78
0.6328 	-7.3136e-78
0.6335 	-7.27762e-78
0.6342 	-7.24163e-78
0.6349 	-1.26192e-77
0.6356 	-6.0867e-78
0.6363 	-3.84069e-78
0.637 	-3.82025e-78
0.6377 	-3.79982e-78
0.6384 	-3.77938e-78
0.6391 	-3.75894e-78
0.6398 	-5.04988e-78
0.6405 	-3.32602e-78
0.6412 	-2.04769e-78
0.6419 	-1.94588e-78
0.6426 	-1.93457e-78
0.6433 	-1.92327e-78
0.644 	-1.91196e-78
0.6447 	-1.90065e-78
0.6454 	-1.77976e-78
0.6461 	-1.11829e-78
0.6468 	-9.71757e-79
0.6475 	-9.65654e-79
0.6482 	-9.59551e-79
0.6489 	-9.53449e-79
0.6496 	-9.47346e-79
0.6503 	-9.3288e-79
0.651 	-5.97769e-79
0.6517 	-4.76018e-79
0.6524 	-4.728e-79
0.6531 	-4.69583e-79
0.6538 	-4.66366e-79
0.6545 	-4.63148e-79
0.6552 	-6.34028e-79
0.6559 	-3.12797e-79
0.6566 	-2.28799e-79
0.6573 	-2.2714e-79
0.658 	-2.25482e-79
0.6587 	-2.23823e-79
0.6594 	-2.22164e-79
0.6601 	-4.07219e-79
0.6608 	-1.6024e-79
0.6615 	-1.07902e-79
0.6622 	-1.07065e-79
0.6629 	-1.06227e-79
0.6636 	-1.0539e-79
0.6643 	-1.04553e-79
0.665 	-2.41979e-79
0.6657 	-8.03367e-80
0.6664 	-4.98732e-80
0.6671 	-4.94589e-80
0.6678 	-4.90447e-80
0.6685 	-4.86305e-80
0.6692 	-4.82162e-80
0.6699 	-8.99506e-80
0.6706 	-3.93579e-80
0.6713 	-2.24948e-80
0.672 	-2.22935e-80
0.6727 	-2.20922e-80
0.6734 	-2.18909e-80
0.6741 	-2.16896e-80
0.6748 	-3.03463e-80
0.6755 	-1.87518e-80
0.6762 	-1.03669e-80
0.6769 	-9.67856e-81
0.6776 	-9.58228e-81
0.6783 	-9.486e-81
0.679 	-9.38972e-81
0.6797 	-9.29344e-81
0.6804 	-8.57848e-81
0.6811 	-4.77144e-81
0.6818 	-3.92012e-81
0.6825 	-3.8749e-81
0.6832 	-3.82969e-81
0.6839 	-3.78447e-81
0.6846 	-3.73925e-81
0.6853 	-3.65594e-81
0.686 	-1.99248e-81
0.6867 	-1.38528e-81
0.6874 	-1.36489e-81
0.6881 	-1.34451e-81
0.6888 	-1.32412e-81
0.6895 	-1.30373e-81
0.6902 	-1.84518e-81
0.6909 	-7.06357e-82
0.6916 	-3.75623e-82
0.6923 	-3.67402e-82
0.693 	-3.59181e-82
0.6937 	-3.50959e-82
0.6944 	-3.42738e-82
0.6951 	-6.58063e-82
0.6958 	-1.63792e-82
0.6965 	-1.49715e-83
0.6972 	-1.25017e-83
0.6979 	-1.00319e-83
0.6986 	-7.56205e-84
0.6993 	-5.09223e-84
0.7 	-2.62381e-84
