0 	1
0.0007 	1
0.0014 	1
0.0021 	1
0.0028 	1
0.0035 	1
0.0042 	1
0.0049 	1
0.0056 	1
0.0063 	1
0.007 	1
0.0077 	1
0.0084 	1
0.0091 	1
0.0098 	1
0.0105 	1
0.0112 	1
0.0119 	1
0.0126 	1
0.0133 	1
0.014 	1
0.0147 	1
0.0154 	1
0.0161 	1
0.0168 	1
0.0175 	1
0.0182 	1
0.0189 	1
0.0196 	1
0.0203 	1
0.021 	1
0.0217 	1
0.0224 	1
0.0231 	1
0.0238 	1
0.0245 	1
0.0252 	1
0.0259 	1
0.0266 	1
0.0273 	1
0.028 	1
0.0287 	1
0.0294 	1
0.0301 	1
0.0308 	1
0.0315 	1
0.0322 	1
0.0329 	1
0.0336 	1
0.0343 	1
0.035 	1
0.0357 	1
0.0364 	1
0.0371 	1
0.0378 	1
0.0385 	1
0.0392 	1
0.0399 	1
0.0406 	1
0.0413 	1
0.042 	1
0.0427 	1
0.0434 	1
0.0441 	1
0.0448 	1
0.0455 	1
0.0462 	1
0.0469 	1
0.0476 	1
0.0483 	1
0.049 	1
0.0497 	1
0.0504 	1
0.0511 	1
0.0518 	1
0.0525 	1
0.0532 	1
0.0539 	1
0.0546 	1
0.0553 	1
0.056 	1
0.0567 	1
0.0574 	1
0.0581 	1
0.0588 	1
0.0595 	1
0.0602 	1
0.0609 	1
0.0616 	1
0.0623 	1
0.063 	1
0.0637 	1
0.0644 	1
0.0651 	1
0.0658 	1
0.0665 	1
0.0672 	1
0.0679 	1
0.0686 	1
0.0693 	1
0.07 	1
0.0707 	1
0.0714 	1
0.0721 	1
0.0728 	1
0.0735 	1
0.0742 	1
0.0749 	1
0.0756 	1
0.0763 	1
0.077 	1
0.0777 	1
0.0784 	1
0.0791 	1
0.0798 	1
0.0805 	1
0.0812 	1
0.0819 	1
0.0826 	1
0.0833 	1
0.084 	1
0.0847 	1
0.0854 	1
0.0861 	1
0.0868 	1
0.0875 	1
0.0882 	1
0.0889 	1
0.0896 	1
0.0903 	1
0.091 	1
0.0917 	1
0.0924 	1
0.0931 	1
0.0938 	1
0.0945 	1
0.0952 	1
0.0959 	1
0.0966 	1
0.0973 	1
0.098 	1
0.0987 	1
0.0994 	1
0.1001 	1
0.1008 	1
0.1015 	1
0.1022 	1
0.1029 	1
0.1036 	1
0.1043 	1
0.105 	1
0.1057 	1
0.1064 	1
0.1071 	1
0.1078 	1
0.1085 	1
0.1092 	1
0.1099 	1
0.1106 	1
0.1113 	1
0.112 	1
0.1127 	1
0.1134 	1
0.1141 	1
0.1148 	1
0.1155 	1
0.1162 	1
0.1169 	1
0.1176 	1
0.1183 	1
0.119 	1
0.1197 	1
0.1204 	1
0.1211 	1
0.1218 	1
0.1225 	1
0.1232 	1
0.1239 	1
0.1246 	1
0.1253 	1
0.126 	1
0.1267 	1
0.1274 	1
0.1281 	1
0.1288 	1
0.1295 	1
0.1302 	1
0.1309 	1
0.1316 	1
0.1323 	1
0.133 	1
0.1337 	1
0.1344 	1
0.1351 	1
0.1358 	1
0.1365 	1
0.1372 	1
0.1379 	1
0.1386 	1
0.1393 	1
0.14 	1
0.1407 	1
0.1414 	1
0.1421 	1
0.1428 	1
0.1435 	1
0.1442 	1
0.1449 	1
0.1456 	1
0.1463 	1
0.147 	1
0.1477 	1
0.1484 	1
0.1491 	1
0.1498 	1
0.1505 	1
0.1512 	1
0.1519 	1
0.1526 	1
0.1533 	1
0.154 	1
0.1547 	1
0.1554 	1
0.1561 	1
0.1568 	1
0.1575 	1
0.1582 	1
0.1589 	1
0.1596 	1
0.1603 	1
0.161 	1
0.1617 	1
0.1624 	1
0.1631 	1
0.1638 	1
0.1645 	1
0.1652 	1
0.1659 	1
0.1666 	1
0.1673 	1
0.168 	1
0.1687 	1
0.1694 	1
0.1701 	1
0.1708 	1
0.1715 	1
0.1722 	1
0.1729 	1
0.1736 	1
0.1743 	1
0.175 	1
0.1757 	1
0.1764 	1
0.1771 	1
0.1778 	1
0.1785 	1
0.1792 	1
0.1799 	1
0.1806 	1
0.1813 	1
0.182 	1
0.1827 	1
0.1834 	1
0.1841 	1
0.1848 	1
0.1855 	1
0.1862 	1
0.1869 	1
0.1876 	1
0.1883 	1
0.189 	1
0.1897 	1
0.1904 	1
0.1911 	1
0.1918 	1
0.1925 	1
0.1932 	1
0.1939 	1
0.1946 	1
0.1953 	1
0.196 	1
0.1967 	1
0.1974 	1
0.1981 	1
0.1988 	1
0.1995 	1
0.2002 	1
0.2009 	1
0.2016 	1
0.2023 	1
0.203 	1
0.2037 	1
0.2044 	1
0.2051 	1
0.2058 	1
0.2065 	1
0.2072 	1
0.2079 	1
0.2086 	1
0.2093 	1
0.21 	1
0.2107 	1
0.2114 	0.999966
0.2121 	0.999931
0.2128 	0.999895
0.2135 	0.99986
0.2142 	0.999824
0.2149 	0.999784
0.2156 	0.999779
0.2163 	0.998056
0.217 	0.995922
0.2177 	0.993787
0.2184 	0.991653
0.2191 	0.989519
0.2198 	0.986893
0.2205 	0.985211
0.2212 	0.968887
0.2219 	0.944941
0.2226 	0.920994
0.2233 	0.897047
0.224 	0.8731
0.2247 	0.842232
0.2254 	0.811203
0.2261 	0.766153
0.2268 	0.705433
0.2275 	0.644712
0.2282 	0.583992
0.2289 	0.523271
0.2296 	0.451
0.2303 	0.365833
0.231 	0.295296
0.2317 	0.249549
0.2324 	0.203806
0.2331 	0.158062
0.2338 	0.112318
0.2345 	0.0762704
0.2352 	0.0573614
0.2359 	0.0374177
0.2366 	0.0302866
0.2373 	0.0231576
0.238 	0.0160285
0.2387 	0.00889952
0.2394 	0.00306197
0.2401 	0.00250891
0.2408 	0.00151274
0.2415 	0.00123985
0.2422 	0.000967062
0.2429 	0.000694277
0.2436 	0.000421491
0.2443 	0.000161268
0.245 	0.000133283
0.2457 	8.27569e-05
0.2464 	6.66958e-05
0.2471 	5.25091e-05
0.2478 	3.83225e-05
0.2485 	2.41358e-05
0.2492 	9.94915e-06
0.2499 	7.31702e-06
0.2506 	4.75144e-06
0.2513 	3.61103e-06
0.252 	2.85941e-06
0.2527 	2.1078e-06
0.2534 	1.35618e-06
0.2541 	6.04563e-07
0.2548 	3.74455e-07
0.2555 	2.53814e-07
0.2562 	1.81789e-07
0.2569 	1.44713e-07
0.2576 	1.07639e-07
0.2583 	7.05653e-08
0.259 	3.34915e-08
0.2597 	1.75957e-08
0.2604 	1.24687e-08
0.2611 	8.40647e-09
0.2618 	6.72783e-09
0.2625 	5.04959e-09
0.2632 	3.37134e-09
0.2639 	1.6931e-09
0.2646 	7.63445e-10
0.2653 	5.70955e-10
0.266 	3.66313e-10
0.2667 	2.9653e-10
0.2674 	2.26784e-10
0.2681 	1.57038e-10
0.2688 	8.7292e-11
0.2695 	3.92918e-11
0.2702 	3.17862e-11
0.2709 	2.14494e-11
0.2716 	1.80548e-11
0.2723 	1.46631e-11
0.273 	1.12714e-11
0.2737 	7.87965e-12
0.2744 	5.01821e-12
0.2751 	4.28027e-12
0.2758 	3.29808e-12
0.2765 	2.89583e-12
0.2772 	2.494e-12
0.2779 	2.09217e-12
0.2786 	1.69034e-12
0.2793 	1.30154e-12
0.28 	1.14304e-12
0.2807 	9.48998e-13
0.2814 	8.44933e-13
0.2821 	7.46085e-13
0.2828 	6.47237e-13
0.2835 	5.48389e-13
0.2842 	4.49541e-13
0.2849 	3.90272e-13
0.2856 	3.29974e-13
0.2863 	2.89832e-13
0.287 	2.54872e-13
0.2877 	2.19913e-13
0.2884 	1.84953e-13
0.2891 	1.49994e-13
0.2898 	1.25669e-13
0.2905 	1.02992e-13
0.2912 	8.71095e-14
0.2919 	7.50657e-14
0.2926 	6.30231e-14
0.2933 	5.09805e-14
0.294 	3.89379e-14
0.2947 	3.08072e-14
0.2954 	2.45358e-14
0.2961 	1.9762e-14
0.2968 	1.67276e-14
0.2975 	1.36943e-14
0.2982 	1.0661e-14
0.2989 	7.6277e-15
0.2996 	5.54186e-15
0.3003 	4.39258e-15
0.301 	3.40602e-15
0.3017 	2.8623e-15
0.3024 	2.31887e-15
0.3031 	1.77545e-15
0.3038 	1.23202e-15
0.3045 	8.19795e-16
0.3052 	6.54103e-16
0.3059 	4.94567e-16
0.3066 	4.1506e-16
0.3073 	3.35599e-16
0.308 	2.56139e-16
0.3087 	1.76678e-16
0.3094 	1.08755e-16
0.3101 	8.70043e-17
0.3108 	6.37511e-17
0.3115 	5.32941e-17
0.3122 	4.28423e-17
0.3129 	3.23905e-17
0.3136 	2.19387e-17
0.3143 	1.19369e-17
0.315 	9.54744e-18
0.3157 	6.81824e-18
0.3164 	5.59211e-18
0.3171 	4.45546e-18
0.3178 	3.31881e-18
0.3185 	2.18216e-18
0.3192 	1.04551e-18
0.3199 	7.69519e-19
0.3206 	5.54671e-19
0.3213 	4.38558e-19
0.322 	3.47844e-19
0.3227 	2.5713e-19
0.3234 	1.66416e-19
0.3241 	7.57015e-20
0.3248 	4.5965e-20
0.3255 	3.3595e-20
0.3262 	2.5729e-20
0.3269 	2.03638e-20
0.3276 	1.49983e-20
0.3283 	9.63278e-21
0.329 	4.26727e-21
0.3297 	1.96356e-21
0.3304 	1.45739e-21
0.3311 	1.08936e-21
0.3318 	8.61574e-22
0.3325 	6.33707e-22
0.3332 	4.05841e-22
0.3339 	1.77974e-22
0.3346 	5.43462e-23
0.3353 	4.10656e-23
0.336 	3.03441e-23
0.3367 	2.40322e-23
0.3374 	1.77133e-23
0.3381 	1.13944e-23
0.3388 	5.07552e-24
0.3395 	8.58105e-25
0.3402 	6.64593e-25
0.3409 	4.94195e-25
0.3416 	3.92842e-25
0.3423 	2.91221e-25
0.343 	1.89599e-25
0.3437 	8.79778e-26
0.3444 	6.49624e-27
0.3451 	5.26309e-27
0.3458 	4.00481e-27
0.3465 	3.20185e-27
0.3472 	2.39446e-27
0.3479 	1.58708e-27
0.3486 	7.797e-28
0.3493 	1.90565e-29
0.35 	1.67296e-29
0.3507 	1.31818e-29
0.3514 	1.05673e-29
0.3521 	7.98412e-30
0.3528 	5.40096e-30
0.3535 	2.8178e-30
0.3542 	2.34636e-31
0.3549 	1.59323e-32
0.3556 	1.32652e-32
0.3563 	1.06751e-32
0.357 	8.15038e-33
0.3577 	5.62565e-33
0.3584 	3.10091e-33
0.3591 	5.7618e-34
0.3598 	3.1394e-36
0.3605 	2.78739e-36
0.3612 	2.26172e-36
0.3619 	1.74495e-36
0.3626 	1.22715e-36
0.3633 	7.09349e-37
0.364 	1.91549e-37
0.3647 	1.91656e-40
0.3654 	1.75844e-40
0.3661 	1.4293e-40
0.3668 	1.11411e-40
0.3675 	7.96948e-41
0.3682 	4.79788e-41
0.3689 	1.62629e-41
0.3696 	2.11954e-44
0.3703 	2.01647e-44
0.371 	1.643e-44
0.3717 	1.29295e-44
0.3724 	9.3923e-45
0.3731 	5.85507e-45
0.3738 	2.31783e-45
0.3745 	2.18651e-48
0.3752 	2.15723e-48
0.3759 	1.76178e-48
0.3766 	1.39889e-48
0.3773 	1.03055e-48
0.378 	6.62211e-49
0.3787 	2.93873e-49
0.3794 	2.32936e-52
0.3801 	2.38428e-52
0.3808 	1.95186e-52
0.3815 	1.56292e-52
0.3822 	1.16627e-52
0.3829 	7.69632e-53
0.3836 	3.7299e-53
0.3843 	2.4555e-56
0.385 	2.60604e-56
0.3857 	2.14148e-56
0.3864 	1.72574e-56
0.3871 	1.30307e-56
0.3878 	8.80391e-57
0.3885 	4.57716e-57
0.3892 	3.50404e-58
0.3899 	2.67638e-60
0.3906 	2.28724e-60
0.3913 	1.8506e-60
0.392 	1.41263e-60
0.3927 	9.74664e-61
0.3934 	5.36697e-61
0.3941 	9.87302e-62
0.3948 	2.65059e-64
0.3955 	2.35444e-64
0.3962 	1.91123e-64
0.3969 	1.47445e-64
0.3976 	1.03666e-64
0.3983 	5.98872e-65
0.399 	1.61086e-65
0.3997 	2.51829e-68
0.4004 	2.3241e-68
0.4011 	1.89155e-68
0.4018 	1.47445e-68
0.4025 	1.05444e-68
0.4032 	6.34425e-69
0.4039 	2.1441e-69
0.4046 	2.29456e-72
0.4053 	2.19935e-72
0.406 	1.79452e-72
0.4067 	1.41239e-72
0.4074 	1.02575e-72
0.4081 	6.39117e-73
0.4088 	2.5248e-73
0.4095 	2.00866e-76
0.4102 	1.99931e-76
0.4109 	1.6353e-76
0.4116 	1.29873e-76
0.4123 	9.56561e-77
0.413 	6.14388e-77
0.4137 	2.72215e-77
0.4144 	1.69576e-80
0.4151 	1.75238e-80
0.4158 	1.43675e-80
0.4165 	1.15071e-80
0.4172 	8.5851e-81
0.4179 	5.6631e-81
0.4186 	2.74109e-81
0.4193 	1.38571e-84
0.42 	1.48687e-84
0.4207 	1.22379e-84
0.4214 	9.8644e-85
0.4221 	7.44703e-85
0.4228 	5.02965e-85
0.4235 	2.61228e-85
0.4242 	1.94904e-86
0.4249 	1.17707e-88
0.4256 	1.00798e-88
0.4263 	8.15346e-89
0.427 	6.20277e-89
0.4277 	4.25208e-89
0.4284 	2.3014e-89
0.4291 	3.50711e-90
0.4298 	-9.01011e-91
0.4305 	-8.66706e-91
0.4312 	-2.48491e-91
0.4319 	-1.62282e-91
0.4326 	-1.3915e-91
0.4333 	-1.16017e-91
0.434 	-9.28852e-92
0.4347 	-8.95014e-92
0.4354 	-8.49901e-92
0.4361 	-5.93414e-92
0.4368 	-4.25548e-92
0.4375 	-3.1293e-92
0.4382 	-2.00311e-92
0.4389 	-8.76927e-93
0.4396 	-3.19039e-93
0.4403 	-3.12622e-93
0.441 	-2.41989e-93
0.4417 	-1.76429e-93
0.4424 	-1.30722e-93
0.4431 	-8.50151e-94
0.4438 	-3.9308e-94
0.4445 	-9.91726e-95
0.4452 	-1.01e-94
0.4459 	-8.15715e-95
0.4466 	-6.11825e-95
0.4473 	-4.57476e-95
0.448 	-3.03127e-95
0.4487 	-1.48778e-95
0.4494 	-2.72772e-96
0.4501 	-3.00293e-96
0.4508 	-2.34855e-96
0.4515 	-1.83215e-96
0.4522 	-1.38129e-96
0.4529 	-9.30435e-97
0.4536 	-4.79577e-97
0.4543 	-6.16733e-98
0.455 	-1.22017e-97
0.4557 	-5.66306e-98
0.4564 	-4.29413e-98
0.4571 	-3.28593e-98
0.4578 	-2.27772e-98
0.4585 	-1.26952e-98
0.4592 	-2.61313e-99
0.4599 	-1.70713e-98
0.4606 	-5.16214e-99
0.4613 	-1.17666e-99
0.462 	-9.55106e-100
0.4627 	-7.33553e-100
0.4634 	-5.12e-100
0.4641 	-2.90447e-100
0.4648 	-3.92025e-99
0.4655 	-1.89109e-99
0.4662 	-1.21286e-100
0.4669 	-9.71528e-101
0.4676 	-8.42793e-101
0.4683 	-7.14058e-101
0.469 	-5.85322e-101
0.4697 	-8.8028e-100
0.4704 	-6.94031e-100
0.4711 	-2.94369e-101
0.4718 	-1.86093e-101
0.4725 	-1.7087e-101
0.4732 	-1.55647e-101
0.4739 	-1.40423e-101
0.4746 	-1.82572e-100
0.4753 	-2.31366e-100
0.476 	-8.64082e-102
0.4767 	-4.28758e-102
0.4774 	-4.00343e-102
0.4781 	-3.71928e-102
0.4788 	-3.43512e-102
0.4795 	-3.38041e-101
0.4802 	-7.10207e-101
0.4809 	-2.50402e-102
0.4816 	-9.94935e-103
0.4823 	-9.34923e-103
0.483 	-8.7491e-103
0.4837 	-8.14898e-103
0.4844 	-5.20104e-102
0.4851 	-2.03481e-101
0.4858 	-6.89248e-103
0.4865 	-2.18479e-103
0.4872 	-2.06813e-103
0.4879 	-1.95146e-103
0.4886 	-1.8348e-103
0.4893 	-5.041e-103
0.49 	-5.49239e-102
0.4907 	-4.99827e-103
0.4914 	-4.47612e-104
0.4921 	-4.27224e-104
0.4928 	-4.06836e-104
0.4935 	-3.86448e-104
0.4942 	-3.6606e-104
0.4949 	-1.082e-102
0.4956 	-2.72897e-103
0.4963 	-8.63019e-105
0.497 	-8.32755e-105
0.4977 	-8.0249e-105
0.4984 	-7.72225e-105
0.4991 	-7.4196e-105
0.4998 	-2.01127e-103
0.5005 	-9.47109e-104
0.5012 	-2.19225e-105
0.5019 	-1.60636e-105
0.5026 	-1.56452e-105
0.5033 	-1.52268e-105
0.504 	-1.48084e-105
0.5047 	-3.50542e-104
0.5054 	-2.75218e-104
0.5061 	-6.47607e-106
0.5068 	-3.12132e-106
0.5075 	-3.05467e-106
0.5082 	-2.98802e-106
0.5089 	-2.92137e-106
0.5096 	-5.64496e-105
0.5103 	-7.1843e-105
0.511 	-1.70056e-106
0.5117 	-5.99678e-107
0.5124 	-5.87456e-107
0.5131 	-5.75235e-107
0.5138 	-5.63013e-107
0.5145 	-8.14268e-106
0.5152 	-1.73369e-105
0.5159 	-4.09908e-107
0.5166 	-1.12382e-107
0.5173 	-1.10058e-107
0.518 	-1.07735e-107
0.5187 	-1.05411e-107
0.5194 	-9.75626e-107
0.5201 	-3.92823e-106
0.5208 	-9.22162e-108
0.5215 	-2.04601e-108
0.5222 	-2.00253e-108
0.5229 	-1.95905e-108
0.5236 	-1.91558e-108
0.5243 	-7.15264e-108
0.525 	-8.43758e-107
0.5257 	-7.10615e-108
0.5264 	-3.61835e-109
0.5271 	-3.53932e-109
0.5278 	-3.46028e-109
0.5285 	-3.38125e-109
0.5292 	-3.30221e-109
0.5299 	-1.32892e-107
0.5306 	-3.28279e-108
0.5313 	-6.22452e-110
0.532 	-6.0851e-110
0.5327 	-5.94568e-110
0.5334 	-5.80626e-110
0.5341 	-5.66684e-110
0.5348 	-1.98654e-108
0.5355 	-9.29247e-109
0.5362 	-1.48329e-110
0.5369 	-1.0202e-110
0.5376 	-9.9631e-111
0.5383 	-9.72416e-111
0.539 	-9.48523e-111
0.5397 	-2.79696e-109
0.5404 	-2.19277e-109
0.5411 	-3.92025e-111
0.5418 	-1.67285e-111
0.5425 	-1.63296e-111
0.5432 	-1.59308e-111
0.5439 	-1.5532e-111
0.5446 	-3.65923e-110
0.5453 	-4.66343e-110
0.546 	-8.77863e-112
0.5467 	-2.68462e-112
0.5474 	-2.61954e-112
0.5481 	-2.55446e-112
0.5488 	-2.48937e-112
0.5495 	-4.32618e-111
0.5502 	-9.2473e-111
0.5509 	-1.78512e-112
0.5516 	-4.20527e-113
0.5523 	-4.10132e-113
0.553 	-3.99736e-113
0.5537 	-3.89341e-113
0.5544 	-4.2858e-112
0.5551 	-1.73968e-111
0.5558 	-3.38372e-113
0.5565 	-6.41359e-114
0.5572 	-6.25159e-114
0.5579 	-6.08958e-114
0.5586 	-5.92758e-114
0.5593 	-2.58744e-113
0.56 	-3.12636e-112
0.5607 	-2.57264e-113
0.5614 	-9.52399e-115
0.5621 	-9.27836e-115
0.5628 	-9.03273e-115
0.5635 	-8.7871e-115
0.5642 	-8.54147e-115
0.5649 	-4.13317e-113
0.5656 	-1.01378e-113
0.5663 	-1.37869e-115
0.567 	-1.34245e-115
0.5677 	-1.30621e-115
0.5684 	-1.26997e-115
0.5691 	-1.23373e-115
0.5698 	-5.19898e-114
0.5705 	-2.42469e-114
0.5712 	-2.93776e-116
0.5719 	-1.89729e-116
0.5726 	-1.84518e-116
0.5733 	-1.79308e-116
0.574 	-1.74097e-116
0.5747 	-6.17072e-115
0.5754 	-4.83384e-115
0.5761 	-6.88038e-117
0.5768 	-2.62584e-117
0.5775 	-2.55269e-117
0.5782 	-2.47954e-117
0.5789 	-2.40638e-117
0.5796 	-6.81461e-116
0.5803 	-8.69291e-116
0.581 	-1.32898e-117
0.5817 	-3.56928e-118
0.5824 	-3.46873e-118
0.5831 	-3.36818e-118
0.5838 	-3.26763e-118
0.5845 	-6.80252e-117
0.5852 	-1.45833e-116
0.5859 	-2.31651e-118
0.5866 	-4.77011e-119
0.5873 	-4.63432e-119
0.588 	-4.49854e-119
0.5887 	-4.36276e-119
0.5894 	-5.69564e-118
0.5901 	-2.32598e-117
0.5908 	-3.77353e-119
0.5915 	-6.25829e-120
0.5922 	-6.07794e-120
0.5929 	-5.89758e-120
0.5936 	-5.71723e-120
0.5943 	-2.90248e-119
0.595 	-3.56644e-118
0.5957 	-2.88807e-119
0.5964 	-8.05858e-121
0.5971 	-7.82345e-121
0.5978 	-7.58831e-121
0.5985 	-7.35317e-121
0.5992 	-7.11803e-121
0.5999 	-4.05275e-119
0.6006 	-9.89717e-120
0.6013 	-1.01951e-121
0.602 	-9.89429e-122
0.6027 	-9.59345e-122
0.6034 	-9.29261e-122
0.6041 	-8.99176e-122
0.6048 	-4.41422e-120
0.6055 	-2.0554e-120
0.6062 	-2.00388e-122
0.6069 	-1.23005e-122
0.6076 	-1.19222e-122
0.6083 	-1.1544e-122
0.609 	-1.11658e-122
0.6097 	-4.57214e-121
0.6104 	-3.58026e-121
0.6111 	-4.28514e-123
0.6118 	-1.50268e-123
0.6125 	-1.45592e-123
0.6132 	-1.40917e-123
0.6139 	-1.36241e-123
0.6146 	-4.43759e-122
0.6153 	-5.66318e-122
0.616 	-7.41083e-124
0.6167 	-1.80439e-124
0.6174 	-1.7476e-124
0.6181 	-1.69081e-124
0.6188 	-1.63402e-124
0.6195 	-3.90649e-123
0.6202 	-8.38606e-123
0.6209 	-1.14919e-124
0.6216 	-2.13232e-125
0.6223 	-2.06452e-125
0.623 	-1.99673e-125
0.6237 	-1.92894e-125
0.6244 	-2.8854e-124
0.6251 	-1.18189e-123
0.6258 	-1.66199e-125
0.6265 	-2.47975e-126
0.6272 	-2.40008e-126
0.6279 	-2.32042e-126
0.6286 	-2.24075e-126
0.6293 	-1.29119e-125
0.63 	-1.60082e-124
0.6307 	-1.28541e-125
0.6314 	-2.83493e-127
0.6321 	-2.74279e-127
0.6328 	-2.65066e-127
0.6335 	-2.55852e-127
0.6342 	-2.46639e-127
0.6349 	-1.61004e-125
0.6356 	-3.92208e-126
0.6363 	-3.18819e-128
0.637 	-3.08348e-128
0.6377 	-2.97878e-128
0.6384 	-2.87407e-128
0.6391 	-2.76936e-128
0.6398 	-1.55524e-126
0.6405 	-7.23418e-127
0.6412 	-5.83769e-129
0.6419 	-3.41685e-129
0.6426 	-3.29982e-129
0.6433 	-3.18279e-129
0.644 	-3.06576e-129
0.6447 	-1.43036e-127
0.6454 	-1.11976e-127
0.6461 	-1.14877e-129
0.6468 	-3.73674e-130
0.6475 	-3.60781e-130
0.6482 	-3.47888e-130
0.6489 	-3.34995e-130
0.6496 	-1.23548e-128
0.6503 	-1.57717e-128
0.651 	-1.80058e-130
0.6517 	-4.04354e-131
0.6524 	-3.90341e-131
0.6531 	-3.76328e-131
0.6538 	-3.62315e-131
0.6545 	-9.72813e-130
0.6552 	-2.09003e-129
0.6559 	-2.53241e-131
0.6566 	-4.33952e-132
0.6573 	-4.18883e-132
0.658 	-4.03814e-132
0.6587 	-3.88745e-132
0.6594 	-6.47673e-131
0.6601 	-2.65704e-130
0.6608 	-3.33924e-132
0.6615 	-4.63467e-133
0.6622 	-4.47401e-133
0.6629 	-4.31335e-133
0.6636 	-4.15269e-133
0.6643 	-2.63663e-132
0.665 	-3.28178e-131
0.6657 	-2.62558e-132
0.6664 	-4.95762e-134
0.6671 	-4.78722e-134
0.6678 	-4.61683e-134
0.6685 	-4.44644e-134
0.6692 	-4.27604e-134
0.6699 	-3.05437e-132
0.6706 	-7.43583e-133
0.6713 	-5.35811e-135
0.672 	-5.17714e-135
0.6727 	-4.99617e-135
0.6734 	-4.8152e-135
0.6741 	-4.63423e-135
0.6748 	-2.79887e-133
0.6755 	-1.3019e-133
0.6762 	-9.77617e-136
0.6769 	-5.72187e-136
0.6776 	-5.52766e-136
0.6783 	-5.33345e-136
0.679 	-5.13923e-136
0.6797 	-2.52457e-134
0.6804 	-1.97658e-134
0.6811 	-1.94208e-136
0.6818 	-6.46272e-137
0.6825 	-6.24933e-137
0.6832 	-6.03593e-137
0.6839 	-5.82253e-137
0.6846 	-2.20638e-135
0.6853 	-2.81597e-135
0.686 	-3.14294e-137
0.6867 	-7.15867e-138
0.6874 	-6.91766e-138
0.6881 	-6.67665e-138
0.6888 	-6.43564e-138
0.6895 	-1.73954e-136
0.6902 	-3.73339e-136
0.6909 	-4.47909e-138
0.6916 	-6.86547e-139
0.6923 	-6.5963e-139
0.693 	-6.32714e-139
0.6937 	-6.05797e-139
0.6944 	-1.00262e-137
0.6951 	-4.10285e-137
0.6958 	-5.11243e-139
0.6965 	-1.21483e-140
0.6972 	-9.57639e-141
0.6979 	-7.00451e-141
0.6986 	-4.43263e-141
0.6993 	-1.97606e-141
0.7 	-9.4817e-142
