0 	1
0.0007 	1
0.0014 	1
0.0021 	1
0.0028 	1
0.0035 	1
0.0042 	1
0.0049 	1
0.0056 	1
0.0063 	1
0.007 	1
0.0077 	1
0.0084 	1
0.0091 	1
0.0098 	1
0.0105 	1
0.0112 	1
0.0119 	1
0.0126 	1
0.0133 	1
0.014 	1
0.0147 	1
0.0154 	1
0.0161 	1
0.0168 	1
0.0175 	1
0.0182 	1
0.0189 	1
0.0196 	1
0.0203 	1
0.021 	1
0.0217 	1
0.0224 	1
0.0231 	1
0.0238 	1
0.0245 	1
0.0252 	1
0.0259 	1
0.0266 	1
0.0273 	1
0.028 	1
0.0287 	1
0.0294 	1
0.0301 	1
0.0308 	1
0.0315 	1
0.0322 	1
0.0329 	1
0.0336 	1
0.0343 	1
0.035 	1
0.0357 	1
0.0364 	1
0.0371 	1
0.0378 	1
0.0385 	1
0.0392 	1
0.0399 	1
0.0406 	1
0.0413 	1
0.042 	1
0.0427 	1
0.0434 	1
0.0441 	1
0.0448 	1
0.0455 	1
0.0462 	1
0.0469 	1
0.0476 	1
0.0483 	1
0.049 	1
0.0497 	1
0.0504 	1
0.0511 	1
0.0518 	1
0.0525 	1
0.0532 	1
0.0539 	1
0.0546 	1
0.0553 	1
0.056 	1
0.0567 	1
0.0574 	1
0.0581 	1
0.0588 	1
0.0595 	1
0.0602 	1
0.0609 	1
0.0616 	1
0.0623 	1
0.063 	1
0.0637 	1
0.0644 	1
0.0651 	1
0.0658 	1
0.0665 	1
0.0672 	1
0.0679 	1
0.0686 	1
0.0693 	1
0.07 	1
0.0707 	1
0.0714 	1
0.0721 	1
0.0728 	1
0.0735 	1
0.0742 	1
0.0749 	1
0.0756 	1
0.0763 	1
0.077 	1
0.0777 	1
0.0784 	1
0.0791 	1
0.0798 	1
0.0805 	1
0.0812 	1
0.0819 	1
0.0826 	1
0.0833 	1
0.084 	1
0.0847 	1
0.0854 	1
0.0861 	1
0.0868 	1
0.0875 	1
0.0882 	1
0.0889 	1
0.0896 	1
0.0903 	1
0.091 	1
0.0917 	1
0.0924 	1
0.0931 	1
0.0938 	1
0.0945 	1
0.0952 	1
0.0959 	1
0.0966 	1
0.0973 	1
0.098 	1
0.0987 	1
0.0994 	1
0.1001 	1
0.1008 	1
0.1015 	1
0.1022 	1
0.1029 	1
0.1036 	1
0.1043 	1
0.105 	1
0.1057 	1
0.1064 	1
0.1071 	1
0.1078 	1
0.1085 	1
0.1092 	1
0.1099 	1
0.1106 	1
0.1113 	1
0.112 	1
0.1127 	1
0.1134 	1
0.1141 	1
0.1148 	1
0.1155 	1
0.1162 	1
0.1169 	1
0.1176 	1
0.1183 	1
0.119 	1
0.1197 	1
0.1204 	1
0.1211 	1
0.1218 	1
0.1225 	1
0.1232 	1
0.1239 	1
0.1246 	1
0.1253 	1
0.126 	1
0.1267 	1
0.1274 	1
0.1281 	1
0.1288 	1
0.1295 	1
0.1302 	1
0.1309 	1
0.1316 	1
0.1323 	1
0.133 	1
0.1337 	1
0.1344 	1
0.1351 	1
0.1358 	1
0.1365 	1
0.1372 	1
0.1379 	1
0.1386 	1
0.1393 	1
0.14 	1
0.1407 	1
0.1414 	1
0.1421 	1
0.1428 	1
0.1435 	1
0.1442 	1
0.1449 	1
0.1456 	1
0.1463 	1
0.147 	1
0.1477 	1
0.1484 	1
0.1491 	1
0.1498 	1
0.1505 	1
0.1512 	1
0.1519 	1
0.1526 	1
0.1533 	1
0.154 	1
0.1547 	1
0.1554 	1
0.1561 	1
0.1568 	1
0.1575 	1
0.1582 	1
0.1589 	1
0.1596 	1
0.1603 	1
0.161 	1
0.1617 	1
0.1624 	1
0.1631 	1
0.1638 	1
0.1645 	1
0.1652 	1
0.1659 	1
0.1666 	1
0.1673 	1
0.168 	1
0.1687 	1
0.1694 	1
0.1701 	1
0.1708 	1
0.1715 	1
0.1722 	1
0.1729 	1
0.1736 	1
0.1743 	1
0.175 	1
0.1757 	1
0.1764 	1
0.1771 	1
0.1778 	1
0.1785 	1
0.1792 	1
0.1799 	1
0.1806 	1
0.1813 	1
0.182 	1
0.1827 	1
0.1834 	1
0.1841 	1
0.1848 	1
0.1855 	1
0.1862 	1
0.1869 	1
0.1876 	1
0.1883 	1
0.189 	1
0.1897 	1
0.1904 	1
0.1911 	1
0.1918 	1
0.1925 	1
0.1932 	1
0.1939 	1
0.1946 	1
0.1953 	1
0.196 	1
0.1967 	1
0.1974 	1
0.1981 	1
0.1988 	1
0.1995 	1
0.2002 	1
0.2009 	1
0.2016 	1
0.2023 	1
0.203 	1
0.2037 	1
0.2044 	1
0.2051 	1
0.2058 	1
0.2065 	1
0.2072 	1
0.2079 	1
0.2086 	1
0.2093 	1
0.21 	1
0.2107 	1
0.2114 	1
0.2121 	1
0.2128 	0.999999
0.2135 	0.999999
0.2142 	0.999998
0.2149 	0.999997
0.2156 	0.999997
0.2163 	0.999988
0.217 	0.999877
0.2177 	0.999759
0.2184 	0.999626
0.2191 	0.999438
0.2198 	0.999195
0.2205 	0.998956
0.2212 	0.998718
0.2219 	0.994172
0.2226 	0.989198
0.2233 	0.983779
0.224 	0.976702
0.2247 	0.966643
0.2254 	0.956639
0.2261 	0.946676
0.2268 	0.91482
0.2275 	0.876933
0.2282 	0.837421
0.2289 	0.791939
0.2296 	0.724562
0.2303 	0.657289
0.231 	0.590153
0.2317 	0.525693
0.2324 	0.46272
0.2331 	0.400016
0.2338 	0.33764
0.2345 	0.27913
0.2352 	0.220661
0.2359 	0.162295
0.2366 	0.11712
0.2373 	0.0851361
0.238 	0.0544341
0.2387 	0.02415
0.2394 	0.0183641
0.2401 	0.0144622
0.2408 	0.0105565
0.2415 	0.00727934
0.2422 	0.00513379
0.2429 	0.0031363
0.2436 	0.00123221
0.2443 	0.000711279
0.245 	0.000567595
0.2457 	0.000424002
0.2464 	0.000294222
0.2471 	0.000215091
0.2478 	0.000139417
0.2485 	6.76053e-05
0.2492 	3.72388e-05
0.2499 	2.9898e-05
0.2506 	2.25638e-05
0.2513 	1.54665e-05
0.252 	1.14349e-05
0.2527 	7.52646e-06
0.2534 	3.86673e-06
0.2541 	1.85788e-06
0.2548 	1.49996e-06
0.2555 	1.14217e-06
0.2562 	7.8442e-07
0.2569 	5.7624e-07
0.2576 	3.83259e-07
0.2583 	2.06e-07
0.259 	8.62513e-08
0.2597 	7.00256e-08
0.2604 	5.37932e-08
0.2611 	3.75558e-08
0.2618 	2.70501e-08
0.2625 	1.81551e-08
0.2632 	1.0177e-08
0.2639 	3.76068e-09
0.2646 	3.0708e-09
0.2653 	2.38007e-09
0.266 	1.68819e-09
0.2667 	1.19586e-09
0.2674 	8.14376e-10
0.2681 	4.7286e-10
0.2688 	1.57503e-10
0.2695 	1.29774e-10
0.2702 	1.01999e-10
0.2709 	7.41117e-11
0.2716 	5.23948e-11
0.2723 	3.68488e-11
0.273 	2.27222e-11
0.2737 	9.02593e-12
0.2744 	6.74804e-12
0.2751 	5.34658e-12
0.2758 	3.93313e-12
0.2765 	2.74565e-12
0.2772 	1.96493e-12
0.2779 	1.23485e-12
0.2786 	5.3498e-13
0.2793 	3.29885e-13
0.28 	2.59733e-13
0.2807 	1.88453e-13
0.2814 	1.24333e-13
0.2821 	8.64678e-14
0.2828 	5.04701e-14
0.2835 	1.64519e-14
0.2842 	3.79508e-15
0.2849 	3.0061e-15
0.2856 	2.19965e-15
0.2863 	1.41758e-15
0.287 	9.90273e-16
0.2877 	5.79033e-16
0.2884 	1.9837e-16
0.2891 	7.30548e-18
0.2898 	5.84369e-18
0.2905 	4.33778e-18
0.2912 	2.81422e-18
0.2919 	1.94878e-18
0.2926 	1.15685e-18
0.2933 	4.54464e-19
0.294 	2.73647e-21
0.2947 	2.21198e-21
0.2954 	1.66824e-21
0.2961 	1.11005e-21
0.2968 	7.49171e-22
0.2975 	4.45752e-22
0.2982 	1.97e-22
0.2989 	1.49112e-24
0.2996 	1.21145e-24
0.3003 	9.24999e-25
0.301 	6.29512e-25
0.3017 	4.2038e-25
0.3024 	2.59223e-25
0.3031 	1.23843e-25
0.3038 	1.65522e-28
0.3045 	1.35759e-28
0.3052 	1.05304e-28
0.3059 	7.31173e-29
0.3066 	4.79457e-29
0.3073 	2.97895e-29
0.308 	1.49346e-29
0.3087 	1.00744e-30
0.3094 	1.05125e-32
0.3101 	8.28777e-33
0.3108 	5.86042e-33
0.3115 	3.79646e-33
0.3122 	2.38659e-33
0.3129 	1.23071e-33
0.3136 	2.17895e-34
0.3143 	7.41301e-37
0.315 	5.94086e-37
0.3157 	4.27127e-37
0.3164 	2.74634e-37
0.3171 	1.75185e-37
0.3178 	9.16679e-38
0.3185 	2.41657e-38
0.3192 	5.10633e-41
0.3199 	4.13923e-41
0.3206 	3.03774e-41
0.3213 	1.94512e-41
0.322 	1.25902e-41
0.3227 	6.60853e-42
0.3234 	2.20537e-42
0.3241 	3.45023e-45
0.3248 	2.82701e-45
0.3255 	2.11778e-45
0.3262 	1.37415e-45
0.3269 	8.89054e-46
0.3276 	4.63555e-46
0.3283 	1.81539e-46
0.329 	2.26245e-49
0.3297 	1.87248e-49
0.3304 	1.43197e-49
0.3311 	9.53553e-50
0.3318 	6.10292e-50
0.3325 	3.13804e-50
0.3332 	1.38157e-50
0.3339 	1.42175e-53
0.3346 	1.18763e-53
0.3353 	9.27233e-54
0.336 	6.31787e-54
0.3367 	4.01974e-54
0.3374 	2.08623e-54
0.3381 	9.77246e-55
0.3388 	8.48015e-58
0.3395 	7.1435e-58
0.3402 	5.69337e-58
0.3409 	3.95956e-58
0.3416 	2.51416e-58
0.3423 	1.35717e-58
0.343 	6.4276e-59
0.3437 	4.32949e-60
0.3444 	4.04993e-62
0.3451 	3.29439e-62
0.3458 	2.33362e-62
0.3465 	1.48299e-62
0.3472 	8.30636e-63
0.3479 	3.93e-63
0.3486 	6.95562e-64
0.3493 	2.15814e-66
0.35 	1.79132e-66
0.3507 	1.29008e-66
0.3514 	8.22182e-67
0.3521 	4.76542e-67
0.3528 	2.23546e-67
0.3535 	5.89167e-68
0.3542 	1.08096e-70
0.3549 	9.05264e-71
0.3556 	6.69161e-71
0.3563 	4.28279e-71
0.357 	2.56161e-71
0.3577 	1.18568e-71
0.3584 	3.95595e-72
0.3591 	5.09936e-75
0.3598 	4.3055e-75
0.3605 	3.26414e-75
0.3612 	2.12379e-75
0.3619 	1.29264e-75
0.3626 	5.88509e-76
0.3633 	2.30433e-76
0.364 	2.27301e-79
0.3647 	1.93357e-79
0.3654 	1.50252e-79
0.3661 	1.00274e-79
0.3668 	6.14402e-80
0.3675 	2.74573e-80
0.3682 	1.20868e-80
0.3689 	7.93132e-84
0.3696 	-1.24971e-84
0.3703 	-4.04369e-84
0.371 	1.67837e-84
0.3717 	2.7547e-84
0.3724 	1.24999e-84
0.3731 	5.76841e-85
0.3738 	-3.34164e-85
0.3745 	-4.93456e-84
0.3752 	-6.90619e-84
0.3759 	-2.30592e-84
0.3766 	-4.74407e-87
0.3773 	-2.72507e-87
0.378 	-2.3401e-87
0.3787 	-2.34691e-87
0.3794 	-1.45842e-84
0.3801 	-2.57846e-84
0.3808 	-1.01029e-84
0.3815 	-1.84544e-87
0.3822 	-9.2075e-88
0.3829 	-6.01152e-88
0.3836 	-5.8565e-88
0.3843 	-3.43529e-85
0.385 	-7.80011e-85
0.3857 	-3.43506e-85
0.3864 	-4.83776e-88
0.3871 	-2.43775e-88
0.3878 	-1.27508e-88
0.3885 	-1.23444e-88
0.3892 	-6.6585e-86
0.3899 	-1.69973e-85
0.3906 	-9.61201e-86
0.3913 	-1.08118e-88
0.392 	-5.6093e-89
0.3927 	-2.36841e-89
0.3934 	-2.2831e-89
0.3941 	-1.076e-86
0.3948 	-3.22354e-86
0.3955 	-2.3031e-86
0.3962 	-1.55467e-87
0.3969 	-1.14188e-89
0.3976 	-3.94219e-90
0.3983 	-3.78821e-90
0.399 	-1.43037e-87
0.3997 	-5.42515e-87
0.4004 	-4.85438e-87
0.4011 	-8.59461e-88
0.4018 	-2.08594e-90
0.4025 	-5.96021e-91
0.4032 	-5.71443e-91
0.4039 	-1.45045e-88
0.4046 	-8.19364e-88
0.4053 	-9.15686e-88
0.406 	-2.41347e-88
0.4067 	-3.45404e-91
0.4074 	-9.23818e-92
0.4081 	-7.88548e-92
0.4088 	-7.50148e-90
0.4095 	-1.11472e-88
0.4102 	-1.5603e-88
0.4109 	-5.20567e-89
0.4116 	-5.21211e-92
0.4123 	-1.68003e-92
0.413 	-1.00224e-92
0.4137 	-9.5634e-93
0.4144 	-1.37012e-89
0.4151 	-2.42333e-89
0.4158 	-9.488e-90
0.4165 	-7.21204e-93
0.4172 	-2.67931e-93
0.4179 	-1.18056e-93
0.4186 	-1.12569e-93
0.4193 	-1.52239e-90
0.42 	-3.45858e-90
0.4207 	-1.52236e-90
0.4214 	-9.20467e-94
0.4221 	-3.82389e-94
0.4228 	-1.29647e-94
0.4235 	-1.23572e-94
0.4242 	-1.52471e-91
0.4249 	-3.89461e-91
0.4256 	-2.2018e-91
0.4263 	-1.09081e-94
0.427 	-4.95324e-95
0.4277 	-1.3267e-95
0.4284 	-1.26451e-95
0.4291 	-1.3529e-92
0.4298 	-4.05627e-92
0.4305 	-2.89766e-92
0.4312 	-1.94268e-93
0.4319 	-5.86282e-96
0.4326 	-1.26672e-96
0.4333 	-1.20781e-96
0.434 	-1.02878e-93
0.4347 	-3.90612e-93
0.4354 	-3.49506e-93
0.4361 	-6.17692e-94
0.4368 	-6.3777e-97
0.4375 	-1.13322e-97
0.4382 	-1.08127e-97
0.4389 	-6.15908e-95
0.4396 	-3.48535e-94
0.4403 	-3.89526e-94
0.441 	-1.0258e-94
0.4417 	-6.42026e-98
0.4424 	-1.1062e-98
0.4431 	-9.1208e-99
0.4438 	-1.93389e-96
0.4445 	-2.8888e-95
0.4452 	-4.04397e-95
0.4459 	-1.34855e-95
0.4466 	-6.02436e-99
0.4473 	-1.52096e-99
0.448 	-7.27615e-100
0.4487 	-6.94067e-100
0.4494 	-2.22447e-96
0.4501 	-3.93507e-96
0.4508 	-1.54022e-96
0.4515 	-5.29733e-100
0.4522 	-1.68963e-100
0.4529 	-5.4946e-101
0.4536 	-5.24688e-101
0.4543 	-1.58345e-97
0.455 	-3.5981e-97
0.4557 	-1.58345e-97
0.4564 	-4.37617e-101
0.4571 	-1.64009e-101
0.4578 	-3.92144e-102
0.4585 	-3.74915e-102
0.4592 	-1.03103e-98
0.4599 	-2.6343e-98
0.4606 	-1.48911e-98
0.4613 	-3.39547e-102
0.462 	-1.43406e-102
0.4627 	-2.64357e-103
0.4634 	-2.53087e-103
0.4641 	-6.03493e-100
0.4648 	-1.80999e-99
0.4655 	-1.29292e-99
0.4662 	-8.6421e-101
0.4669 	-1.14712e-103
0.4676 	-1.68536e-104
0.4683 	-1.6159e-104
0.469 	-3.07144e-101
0.4697 	-1.16672e-100
0.4704 	-1.04392e-100
0.4711 	-1.84349e-101
0.4718 	-8.48053e-105
0.4725 	-1.01911e-105
0.4732 	-9.78658e-106
0.4739 	-1.24671e-102
0.4746 	-7.06039e-102
0.4753 	-7.89092e-102
0.476 	-2.07725e-102
0.4767 	-5.84374e-106
0.4774 	-6.80042e-107
0.4781 	-5.63739e-107
0.4788 	-2.68002e-104
0.4795 	-4.01262e-103
0.4802 	-5.61746e-103
0.4809 	-1.87285e-103
0.4816 	-3.77742e-107
0.4823 	-7.95636e-108
0.483 	-3.09458e-108
0.4837 	-2.97683e-108
0.4844 	-2.13755e-104
0.4851 	-3.7816e-104
0.4858 	-1.47994e-104
0.4865 	-2.3012e-108
0.4872 	-6.60394e-109
0.4879 	-1.62031e-109
0.4886 	-1.56126e-109
0.4893 	-1.0623e-105
0.49 	-2.41412e-105
0.4907 	-1.0623e-105
0.4914 	-1.32512e-109
0.4921 	-4.63803e-110
0.4928 	-8.09057e-111
0.4935 	-7.80864e-111
0.4942 	-4.87869e-107
0.4949 	-1.24666e-106
0.4956 	-7.04668e-107
0.4963 	-7.22265e-111
0.497 	-2.90995e-111
0.4977 	-3.84913e-112
0.4984 	-3.7212e-112
0.4991 	-2.0348e-108
0.4998 	-6.10369e-108
0.5005 	-4.35988e-108
0.5012 	-2.91004e-109
0.5019 	-1.66966e-112
0.5026 	-1.74419e-113
0.5033 	-1.68913e-113
0.504 	-7.44284e-110
0.5047 	-2.82783e-109
0.5054 	-2.53019e-109
0.5061 	-4.46642e-110
0.5068 	-8.87187e-114
0.5075 	-7.52442e-115
0.5082 	-7.29993e-115
0.5089 	-2.18422e-111
0.5096 	-1.2374e-110
0.5103 	-1.38297e-110
0.511 	-3.63994e-111
0.5117 	-4.39734e-115
0.5124 	-3.45582e-116
0.5131 	-3.00505e-116
0.5138 	-3.40575e-113
0.5145 	-5.10473e-112
0.5152 	-7.14651e-112
0.5159 	-2.38237e-112
0.5166 	-2.04407e-116
0.5173 	-3.7226e-117
0.518 	-1.17729e-117
0.5187 	-1.14561e-117
0.5194 	-1.97722e-113
0.5201 	-3.49807e-113
0.5208 	-1.36888e-113
0.5215 	-8.93326e-118
0.5222 	-2.36655e-118
0.5229 	-4.39342e-119
0.5236 	-4.28379e-119
0.5243 	-7.15466e-115
0.525 	-1.62601e-114
0.5257 	-7.15468e-115
0.5264 	-3.68256e-119
0.5271 	-1.22479e-119
0.5278 	-1.56117e-120
0.5285 	-1.52519e-120
0.5292 	-2.39803e-116
0.5299 	-6.12809e-116
0.5306 	-3.46377e-116
0.5313 	-1.4337e-120
0.532 	-5.57609e-121
0.5327 	-5.27643e-122
0.5334 	-5.1638e-122
0.5341 	-7.32701e-118
0.5348 	-2.19801e-117
0.5355 	-1.57002e-117
0.5362 	-1.04718e-118
0.5369 	-2.30131e-122
0.5376 	-1.69527e-123
0.5383 	-1.66157e-123
0.539 	-1.97364e-119
0.5397 	-7.49939e-119
0.5404 	-6.71001e-119
0.5411 	-1.18426e-119
0.5418 	-8.74149e-124
0.5425 	-5.17418e-125
0.5432 	-5.07822e-125
0.5439 	-4.29209e-121
0.5446 	-2.43198e-120
0.5453 	-2.71809e-120
0.546 	-7.15326e-121
0.5467 	-3.08238e-125
0.5474 	-1.53553e-126
0.5481 	-1.4802e-126
0.5488 	-4.99411e-123
0.5495 	-7.48935e-122
0.5502 	-1.0485e-121
0.5509 	-3.49512e-122
0.5516 	-1.01891e-126
0.5523 	-1.64115e-127
0.553 	-4.14538e-128
0.5537 	-4.07844e-128
0.5544 	-2.18201e-123
0.5551 	-3.86046e-123
0.5558 	-1.51064e-123
0.5565 	-3.19327e-128
0.5572 	-7.95021e-129
0.5579 	-1.11128e-129
0.5586 	-1.09498e-129
0.5593 	-5.9844e-125
0.56 	-1.36008e-124
0.5607 	-5.98442e-125
0.5614 	-9.47905e-130
0.5621 	-3.03497e-130
0.5628 	-2.84068e-131
0.5635 	-2.80345e-131
0.5642 	-1.53217e-126
0.5649 	-3.91551e-126
0.5656 	-2.21313e-126
0.5663 	-2.66037e-131
0.567 	-1.00831e-131
0.5677 	-6.88354e-133
0.5684 	-6.80464e-133
0.5691 	-3.6058e-128
0.5698 	-1.08173e-127
0.5705 	-7.72667e-128
0.5712 	-5.15185e-129
0.5719 	-3.01342e-133
0.5726 	-1.6022e-134
0.5733 	-1.58708e-134
0.574 	-7.64354e-130
0.5747 	-2.90451e-129
0.5754 	-2.59878e-129
0.5761 	-4.58623e-130
0.5768 	-8.43367e-135
0.5775 	-5.19581e-136
0.5782 	-5.16597e-136
0.5789 	-1.59877e-131
0.5796 	-9.0595e-131
0.5803 	-1.01253e-130
0.581 	-2.6646e-131
0.5817 	-3.18062e-136
0.5824 	-1.67134e-137
0.5831 	-1.66232e-137
0.5838 	-1.83056e-133
0.5845 	-2.74566e-132
0.5852 	-3.84392e-132
0.5859 	-1.28132e-132
0.5866 	-1.16201e-137
0.5873 	-1.86552e-138
0.588 	-5.32677e-139
0.5887 	-5.29916e-139
0.5894 	-8.07366e-134
0.5901 	-1.42841e-133
0.5908 	-5.58949e-134
0.5915 	-4.17312e-139
0.5922 	-1.0625e-139
0.5929 	-1.95723e-140
0.5936 	-1.94852e-140
0.5943 	-2.48838e-135
0.595 	-5.65539e-135
0.5957 	-2.48839e-135
0.5964 	-1.70797e-140
0.5971 	-6.15822e-141
0.5978 	-1.5634e-141
0.5985 	-1.56009e-141
0.5992 	-1.07454e-136
0.5999 	-2.74603e-136
0.6006 	-1.55211e-136
0.6013 	-1.49268e-141
0.602 	-6.28063e-142
0.6027 	-1.41439e-142
0.6034 	-1.41111e-142
0.6041 	-4.96792e-138
0.6048 	-1.49035e-137
0.6055 	-1.06454e-137
0.6062 	-7.09834e-139
0.6069 	-6.73028e-143
0.6076 	-1.1756e-143
0.6083 	-1.17214e-143
0.609 	-2.07307e-139
0.6097 	-7.87734e-139
0.6104 	-7.04817e-139
0.6111 	-1.24389e-139
0.6118 	-6.64094e-144
0.6125 	-1.23247e-144
0.6132 	-1.22932e-144
0.6139 	-8.76314e-141
0.6146 	-4.96523e-140
0.6153 	-5.54936e-140
0.616 	-1.46045e-140
0.6167 	-7.89152e-145
0.6174 	-1.23646e-145
0.6181 	-1.23253e-145
0.6188 	-2.05498e-142
0.6195 	-3.0808e-141
0.6202 	-4.31307e-141
0.6209 	-1.43777e-141
0.6216 	-8.87845e-146
0.6223 	-2.17679e-146
0.623 	-1.29198e-146
0.6237 	-1.28741e-146
0.6244 	-2.06075e-142
0.6251 	-3.64585e-142
0.6258 	-1.42672e-142
0.6265 	-1.02778e-146
0.6272 	-3.22595e-147
0.6279 	-1.29163e-147
0.6286 	-1.28592e-147
0.6293 	-1.3686e-143
0.63 	-3.11029e-143
0.6307 	-1.3686e-143
0.6314 	-1.12436e-147
0.6321 	-4.16896e-148
0.6328 	-1.2219e-148
0.6335 	-1.21521e-148
0.6342 	-8.79158e-145
0.6349 	-2.24655e-144
0.6356 	-1.26984e-144
0.6363 	-1.15487e-148
0.637 	-4.79576e-149
0.6377 	-1.02199e-149
0.6384 	-1.01465e-149
0.6391 	-5.00702e-146
0.6398 	-1.50191e-145
0.6405 	-1.07282e-145
0.6412 	-7.16153e-147
0.6419 	-4.78871e-150
0.6426 	-8.3968e-151
0.6433 	-8.32833e-151
0.644 	-2.67864e-147
0.6447 	-1.01765e-146
0.6454 	-9.10542e-147
0.6461 	-1.60752e-147
0.6468 	-4.60481e-151
0.6475 	-7.43171e-152
0.6482 	-7.36924e-152
0.6489 	-1.29818e-148
0.6496 	-7.35294e-148
0.6503 	-8.2179e-148
0.651 	-2.16314e-148
0.6517 	-4.61971e-152
0.6524 	-6.06295e-153
0.6531 	-6.00037e-153
0.6538 	-3.27358e-150
0.6545 	-4.90208e-149
0.6552 	-6.86268e-149
0.6559 	-2.28795e-149
0.6566 	-4.22105e-153
0.6573 	-9.25501e-154
0.658 	-4.98661e-154
0.6587 	-4.9308e-154
0.6594 	-3.31893e-150
0.6601 	-5.87158e-150
0.6608 	-2.29787e-150
0.6615 	-3.88405e-154
0.6622 	-1.15294e-154
0.6629 	-4.10302e-155
0.6636 	-4.05178e-155
0.6643 	-2.19287e-151
0.665 	-4.98329e-151
0.6657 	-2.19287e-151
0.6664 	-3.49701e-155
0.6671 	-1.24639e-155
0.6678 	-3.13951e-156
0.6685 	-3.09303e-156
0.6692 	-1.31051e-152
0.6699 	-3.34861e-152
0.6706 	-1.89282e-152
0.6713 	-2.90271e-156
0.672 	-1.18513e-156
0.6727 	-2.29008e-157
0.6734 	-2.25166e-157
0.6741 	-7.18699e-154
0.6748 	-2.15565e-153
0.6755 	-1.53981e-153
0.6762 	-1.02859e-154
0.6769 	-1.03863e-157
0.6776 	-1.69841e-158
0.6783 	-1.66842e-158
0.679 	-3.65509e-155
0.6797 	-1.38847e-154
0.6804 	-1.24233e-154
0.6811 	-2.19369e-155
0.6818 	-8.95354e-159
0.6825 	-1.22114e-159
0.6832 	-1.19727e-159
0.6839 	-1.49793e-156
0.6846 	-8.48278e-156
0.6853 	-9.48061e-156
0.686 	-2.49575e-156
0.6867 	-7.32322e-160
0.6874 	-8.65576e-161
0.6881 	-8.47363e-161
0.6888 	-3.36312e-158
0.6895 	-5.03307e-157
0.6902 	-7.04596e-157
0.6909 	-2.3492e-157
0.6916 	-5.79851e-161
0.6923 	-1.15349e-161
0.693 	-5.54418e-162
0.6937 	-5.40648e-162
0.6944 	-2.75703e-158
0.6951 	-4.87741e-158
0.6958 	-1.90887e-158
0.6965 	-4.18171e-162
0.6972 	-1.14467e-162
0.6979 	-3.20191e-163
0.6986 	-3.10594e-163
0.6993 	-3.0563e-163
0.7 	-3.01931e-163
