0 	1
0.0007 	1
0.0014 	1
0.0021 	1
0.0028 	1
0.0035 	1
0.0042 	1
0.0049 	1
0.0056 	1
0.0063 	1
0.007 	1
0.0077 	1
0.0084 	1
0.0091 	1
0.0098 	1
0.0105 	1
0.0112 	1
0.0119 	1
0.0126 	1
0.0133 	1
0.014 	1
0.0147 	1
0.0154 	1
0.0161 	1
0.0168 	1
0.0175 	1
0.0182 	1
0.0189 	1
0.0196 	1
0.0203 	1
0.021 	1
0.0217 	1
0.0224 	1
0.0231 	1
0.0238 	1
0.0245 	1
0.0252 	1
0.0259 	1
0.0266 	1
0.0273 	1
0.028 	1
0.0287 	1
0.0294 	1
0.0301 	1
0.0308 	1
0.0315 	1
0.0322 	1
0.0329 	1
0.0336 	1
0.0343 	1
0.035 	1
0.0357 	1
0.0364 	1
0.0371 	1
0.0378 	1
0.0385 	1
0.0392 	1
0.0399 	1
0.0406 	1
0.0413 	1
0.042 	1
0.0427 	1
0.0434 	1
0.0441 	1
0.0448 	1
0.0455 	1
0.0462 	1
0.0469 	1
0.0476 	1
0.0483 	1
0.049 	1
0.0497 	1
0.0504 	1
0.0511 	1
0.0518 	1
0.0525 	1
0.0532 	1
0.0539 	1
0.0546 	1
0.0553 	1
0.056 	1
0.0567 	1
0.0574 	1
0.0581 	1
0.0588 	1
0.0595 	1
0.0602 	1
0.0609 	1
0.0616 	1
0.0623 	1
0.063 	1
0.0637 	1
0.0644 	1
0.0651 	1
0.0658 	1
0.0665 	1
0.0672 	1
0.0679 	1
0.0686 	1
0.0693 	1
0.07 	1
0.0707 	1
0.0714 	1
0.0721 	1
0.0728 	1
0.0735 	1
0.0742 	1
0.0749 	1
0.0756 	1
0.0763 	1
0.077 	1
0.0777 	1
0.0784 	1
0.0791 	1
0.0798 	1
0.0805 	1
0.0812 	1
0.0819 	1
0.0826 	1
0.0833 	1
0.084 	1
0.0847 	1
0.0854 	1
0.0861 	1
0.0868 	1
0.0875 	1
0.0882 	1
0.0889 	1
0.0896 	1
0.0903 	1
0.091 	1
0.0917 	1
0.0924 	1
0.0931 	1
0.0938 	1
0.0945 	1
0.0952 	1
0.0959 	1
0.0966 	1
0.0973 	1
0.098 	1
0.0987 	1
0.0994 	1
0.1001 	1
0.1008 	1
0.1015 	1
0.1022 	1
0.1029 	1
0.1036 	1
0.1043 	1
0.105 	1
0.1057 	1
0.1064 	1
0.1071 	1
0.1078 	1
0.1085 	1
0.1092 	1
0.1099 	1
0.1106 	1
0.1113 	1
0.112 	1
0.1127 	1
0.1134 	1
0.1141 	1
0.1148 	1
0.1155 	1
0.1162 	1
0.1169 	1
0.1176 	1
0.1183 	1
0.119 	1
0.1197 	1
0.1204 	1
0.1211 	1
0.1218 	1
0.1225 	1
0.1232 	1
0.1239 	1
0.1246 	1
0.1253 	1
0.126 	1
0.1267 	1
0.1274 	1
0.1281 	1
0.1288 	1
0.1295 	1
0.1302 	1
0.1309 	1
0.1316 	1
0.1323 	1
0.133 	1
0.1337 	1
0.1344 	1
0.1351 	1
0.1358 	1
0.1365 	1
0.1372 	1
0.1379 	1
0.1386 	1
0.1393 	1
0.14 	1
0.1407 	1
0.1414 	1
0.1421 	1
0.1428 	1
0.1435 	1
0.1442 	1
0.1449 	1
0.1456 	1
0.1463 	1
0.147 	1
0.1477 	1
0.1484 	1
0.1491 	1
0.1498 	1
0.1505 	1
0.1512 	1
0.1519 	1
0.1526 	1
0.1533 	1
0.154 	1
0.1547 	1
0.1554 	1
0.1561 	1
0.1568 	1
0.1575 	1
0.1582 	1
0.1589 	1
0.1596 	1
0.1603 	1
0.161 	1
0.1617 	1
0.1624 	1
0.1631 	1
0.1638 	1
0.1645 	1
0.1652 	1
0.1659 	1
0.1666 	1
0.1673 	1
0.168 	1
0.1687 	1
0.1694 	1
0.1701 	1
0.1708 	1
0.1715 	1
0.1722 	1
0.1729 	1
0.1736 	1
0.1743 	1
0.175 	1
0.1757 	1
0.1764 	1
0.1771 	1
0.1778 	1
0.1785 	1
0.1792 	1
0.1799 	1
0.1806 	1
0.1813 	1
0.182 	1
0.1827 	1
0.1834 	1
0.1841 	1
0.1848 	1
0.1855 	1
0.1862 	1
0.1869 	1
0.1876 	1
0.1883 	1
0.189 	1
0.1897 	1
0.1904 	1
0.1911 	1
0.1918 	1
0.1925 	1
0.1932 	1
0.1939 	1
0.1946 	1
0.1953 	1
0.196 	1
0.1967 	1
0.1974 	1
0.1981 	1
0.1988 	1
0.1995 	1
0.2002 	1
0.2009 	1
0.2016 	1
0.2023 	1
0.203 	1
0.2037 	1
0.2044 	1
0.2051 	1
0.2058 	1
0.2065 	1
0.2072 	1
0.2079 	1
0.2086 	1
0.2093 	1
0.21 	1
0.2107 	1
0.2114 	1
0.2121 	0.999999
0.2128 	0.999999
0.2135 	0.999996
0.2142 	0.999991
0.2149 	0.999987
0.2156 	0.999987
0.2163 	0.999979
0.217 	0.999854
0.2177 	0.999728
0.2184 	0.999425
0.2191 	0.998817
0.2198 	0.998145
0.2205 	0.997834
0.2212 	0.997668
0.2219 	0.993216
0.2226 	0.988433
0.2233 	0.981861
0.224 	0.968991
0.2247 	0.953155
0.2254 	0.939954
0.2261 	0.928729
0.2268 	0.898197
0.2275 	0.862399
0.2282 	0.824634
0.2289 	0.768977
0.2296 	0.694017
0.2303 	0.620279
0.231 	0.548168
0.2317 	0.4824
0.2324 	0.420158
0.2331 	0.357915
0.2338 	0.300775
0.2345 	0.252836
0.2352 	0.203967
0.2359 	0.152772
0.2366 	0.110195
0.2373 	0.0762353
0.238 	0.0422759
0.2387 	0.0209932
0.2394 	0.017976
0.2401 	0.0158956
0.2408 	0.0120536
0.2415 	0.00852419
0.2422 	0.00555764
0.2429 	0.00259108
0.2436 	0.00103681
0.2443 	0.000760187
0.245 	0.000670904
0.2457 	0.000517398
0.2464 	0.000372234
0.2471 	0.000257663
0.2478 	0.000143092
0.2485 	6.76416e-05
0.2492 	4.7701e-05
0.2499 	4.16509e-05
0.2506 	3.27677e-05
0.2513 	2.35894e-05
0.252 	1.67155e-05
0.2527 	9.84152e-06
0.2534 	4.65112e-06
0.2541 	3.03835e-06
0.2548 	2.6652e-06
0.2555 	2.13625e-06
0.2562 	1.54497e-06
0.2569 	1.0972e-06
0.2576 	6.60468e-07
0.2583 	2.96027e-07
0.259 	1.76932e-07
0.2597 	1.57076e-07
0.2604 	1.28823e-07
0.2611 	9.4272e-08
0.2618 	6.6518e-08
0.2625 	4.06177e-08
0.2632 	1.68766e-08
0.2639 	9.16488e-09
0.2646 	8.23995e-09
0.2653 	6.94158e-09
0.266 	5.14528e-09
0.2667 	3.6243e-09
0.2674 	2.25629e-09
0.2681 	8.88272e-10
0.2688 	4.42103e-10
0.2695 	4.02857e-10
0.2702 	3.50553e-10
0.2709 	2.65603e-10
0.2716 	1.90152e-10
0.2723 	1.242e-10
0.273 	5.82473e-11
0.2737 	2.99074e-11
0.2744 	2.6027e-11
0.2751 	2.31736e-11
0.2758 	1.83634e-11
0.2765 	1.3939e-11
0.2772 	1.02091e-11
0.2779 	6.47915e-12
0.2786 	4.34967e-12
0.2793 	3.74449e-12
0.28 	3.37008e-12
0.2807 	2.80624e-12
0.2814 	2.27068e-12
0.2821 	1.83881e-12
0.2828 	1.40694e-12
0.2835 	1.09289e-12
0.2842 	9.56224e-13
0.2849 	8.66514e-13
0.2856 	7.52056e-13
0.2863 	6.35444e-13
0.287 	5.44449e-13
0.2877 	4.53454e-13
0.2884 	3.75417e-13
0.2891 	3.29281e-13
0.2898 	2.96846e-13
0.2905 	2.57582e-13
0.2912 	2.15586e-13
0.2919 	1.83565e-13
0.2926 	1.52312e-13
0.2933 	1.23734e-13
0.294 	1.06101e-13
0.2947 	9.53169e-14
0.2954 	8.18593e-14
0.2961 	6.63965e-14
0.2968 	5.42409e-14
0.2975 	4.29873e-14
0.2982 	3.23188e-14
0.2989 	2.64801e-14
0.2996 	2.39205e-14
0.3003 	2.06574e-14
0.301 	1.64562e-14
0.3017 	1.29783e-14
0.3024 	9.90227e-15
0.3031 	6.82624e-15
0.3038 	5.29295e-15
0.3045 	4.81532e-15
0.3052 	4.22691e-15
0.3059 	3.36156e-15
0.3066 	2.60778e-15
0.3073 	1.96559e-15
0.308 	1.3234e-15
0.3087 	9.66398e-16
0.3094 	8.67709e-16
0.3101 	7.74415e-16
0.3108 	6.18821e-16
0.3115 	4.77019e-16
0.3122 	3.60042e-16
0.3129 	2.43065e-16
0.3136 	1.70815e-16
0.3143 	1.47806e-16
0.315 	1.32987e-16
0.3157 	1.06927e-16
0.3164 	8.22278e-17
0.3171 	6.25229e-17
0.3178 	4.2818e-17
0.3185 	2.9043e-17
0.3192 	2.40453e-17
0.3199 	2.1297e-17
0.3206 	1.74691e-17
0.3213 	1.35326e-17
0.322 	1.0524e-17
0.3227 	7.51531e-18
0.3234 	5.11567e-18
0.3241 	4.07765e-18
0.3248 	3.53604e-18
0.3255 	2.9307e-18
0.3262 	2.29987e-18
0.3269 	1.82441e-18
0.3276 	1.3609e-18
0.3283 	9.48381e-19
0.329 	7.33425e-19
0.3297 	6.25793e-19
0.3304 	5.15748e-19
0.3311 	4.03894e-19
0.3318 	3.17369e-19
0.3325 	2.37752e-19
0.3332 	1.6188e-19
0.3339 	1.1875e-19
0.3346 	1.00958e-19
0.3353 	8.27667e-20
0.336 	6.40426e-20
0.3367 	4.89335e-20
0.3374 	3.58327e-20
0.3381 	2.2732e-20
0.3388 	1.51844e-20
0.3395 	1.29505e-20
0.3402 	1.06476e-20
0.3409 	8.17243e-21
0.3416 	6.07257e-21
0.3423 	4.34809e-21
0.343 	2.6236e-21
0.3437 	1.5356e-21
0.3444 	1.26649e-21
0.3451 	1.04671e-21
0.3458 	8.0094e-22
0.3465 	5.82107e-22
0.3472 	4.11765e-22
0.3479 	2.41422e-22
0.3486 	1.26065e-22
0.3493 	9.39709e-23
0.35 	7.80596e-23
0.3507 	5.97042e-23
0.3514 	4.25743e-23
0.3521 	2.99386e-23
0.3528 	1.73029e-23
0.3535 	8.01464e-24
0.3542 	5.11121e-24
0.3549 	4.2549e-24
0.3556 	3.27413e-24
0.3563 	2.29513e-24
0.357 	1.60883e-24
0.3577 	9.22519e-25
0.3584 	3.75385e-25
0.3591 	1.86473e-25
0.3598 	1.55746e-25
0.3605 	1.20896e-25
0.3612 	8.43967e-26
0.3619 	5.85892e-26
0.3626 	3.36043e-26
0.3633 	1.20277e-26
0.364 	3.94561e-27
0.3647 	3.31339e-27
0.3654 	2.60373e-27
0.3661 	1.83599e-27
0.3668 	1.25556e-27
0.3675 	7.26225e-28
0.3682 	2.31852e-28
0.3689 	3.6698e-29
0.3696 	3.10006e-29
0.3703 	2.47235e-29
0.371 	1.76734e-29
0.3717 	1.19951e-29
0.3724 	7.07893e-30
0.3731 	2.16276e-30
0.3738 	8.3718e-32
0.3745 	7.15932e-32
0.3752 	5.83519e-32
0.3759 	4.23192e-32
0.3766 	2.87356e-32
0.3773 	1.76014e-32
0.378 	6.46724e-33
0.3787 	4.44084e-34
0.3794 	7.44378e-35
0.3801 	6.23922e-35
0.3808 	4.56594e-35
0.3815 	3.22485e-35
0.3822 	2.48175e-35
0.3829 	1.73866e-35
0.3836 	8.07316e-36
0.3843 	5.33728e-36
0.385 	4.62149e-36
0.3857 	3.37564e-36
0.3864 	2.31753e-36
0.3871 	1.94787e-36
0.3878 	1.57821e-36
0.3885 	8.86688e-37
0.3892 	5.00619e-37
0.3899 	4.30108e-37
0.3906 	3.15233e-37
0.3913 	1.99206e-37
0.392 	1.64343e-37
0.3927 	1.2948e-37
0.3934 	7.17257e-38
0.3941 	2.47487e-38
0.3948 	2.18368e-38
0.3955 	1.64819e-38
0.3962 	1.01499e-38
0.3969 	8.21319e-39
0.3976 	6.61462e-39
0.3983 	4.15324e-39
0.399 	9.92038e-40
0.3997 	8.96426e-40
0.4004 	7.01817e-40
0.4011 	4.32961e-40
0.4018 	3.28627e-40
0.4025 	2.69166e-40
0.4032 	1.91238e-40
0.4039 	2.42405e-41
0.4046 	2.28712e-41
0.4053 	1.89913e-41
0.406 	1.1764e-41
0.4067 	8.34275e-42
0.4074 	7.03619e-42
0.4081 	5.72963e-42
0.4088 	3.07013e-43
0.4095 	3.09532e-43
0.4102 	2.81179e-43
0.4109 	1.75644e-43
0.4116 	1.15575e-43
0.4123 	1.00974e-43
0.413 	8.63719e-44
0.4137 	7.89422e-45
0.4144 	1.56077e-45
0.4151 	1.63728e-45
0.4158 	1.03408e-45
0.4165 	6.26494e-46
0.4172 	5.71058e-46
0.4179 	5.15621e-46
0.4186 	1.19014e-46
0.4193 	1.76964e-48
0.42 	2.2841e-48
0.4207 	1.46182e-48
0.4214 	8.07212e-49
0.4221 	7.67444e-49
0.4228 	7.27677e-49
0.4235 	2.80176e-49
0.4242 	2.9353e-52
0.4249 	4.29918e-52
0.4256 	3.08297e-52
0.4263 	1.55174e-52
0.427 	1.51568e-52
0.4277 	1.47962e-52
0.4284 	8.05992e-53
0.4291 	2.04812e-56
0.4298 	2.9957e-56
0.4305 	2.41414e-56
0.4312 	1.22092e-56
0.4319 	1.10645e-56
0.4326 	1.07497e-56
0.4333 	7.47754e-57
0.434 	2.10153e-60
0.4347 	3.21714e-60
0.4354 	2.92183e-60
0.4361 	1.56832e-60
0.4368 	1.25436e-60
0.4375 	1.22392e-60
0.4382 	1.04064e-60
0.4389 	1.88129e-64
0.4396 	2.98153e-64
0.4403 	3.04308e-64
0.441 	1.71972e-64
0.4417 	1.22873e-64
0.4424 	1.2002e-64
0.4431 	1.17167e-64
0.4438 	1.68076e-68
0.4445 	2.77727e-68
0.4452 	3.18728e-68
0.4459 	1.88108e-68
0.4466 	1.21456e-68
0.4473 	1.18777e-68
0.448 	1.16098e-68
0.4487 	9.15968e-70
0.4494 	2.54064e-72
0.4501 	3.28463e-72
0.4508 	2.01174e-72
0.4515 	1.18466e-72
0.4522 	1.16005e-72
0.4529 	1.13544e-72
0.4536 	2.67821e-73
0.4543 	2.14877e-76
0.455 	3.04179e-76
0.4557 	1.9726e-76
0.4564 	1.12758e-76
0.4571 	1.10457e-76
0.4578 	1.08156e-76
0.4585 	4.15873e-77
0.4592 	-2.05576e-77
0.4599 	-5.04548e-77
0.4606 	-2.94022e-77
0.4613 	-1.97215e-78
0.462 	-2.03143e-78
0.4627 	-2.09071e-78
0.4634 	-2.2823e-78
0.4641 	-1.88736e-77
0.4648 	-5.16667e-77
0.4655 	-3.7658e-77
0.4662 	-4.92861e-78
0.4669 	-2.59474e-78
0.4676 	-2.59944e-78
0.4683 	-2.61746e-78
0.469 	-1.3898e-77
0.4697 	-4.53811e-77
0.4704 	-4.08681e-77
0.4711 	-9.35811e-78
0.4718 	-2.59615e-78
0.4725 	-2.58416e-78
0.4732 	-2.56814e-78
0.4739 	-8.74e-78
0.4746 	-3.77124e-77
0.4753 	-4.1829e-77
0.476 	-1.28043e-77
0.4767 	-2.42659e-78
0.4774 	-2.40886e-78
0.4781 	-2.39114e-78
0.4788 	-4.16172e-78
0.4795 	-2.99872e-77
0.4802 	-4.10361e-77
0.4809 	-1.51441e-77
0.4816 	-2.18711e-78
0.4823 	-2.16598e-78
0.483 	-2.14485e-78
0.4837 	-2.05308e-78
0.4844 	-2.27373e-77
0.4851 	-3.8643e-77
0.4858 	-1.62837e-77
0.4865 	-1.90146e-78
0.4872 	-1.87872e-78
0.4879 	-1.85598e-78
0.4886 	-1.76605e-78
0.4893 	-1.63798e-77
0.49 	-3.50116e-77
0.4907 	-1.63015e-77
0.4914 	-1.59562e-78
0.4921 	-1.5733e-78
0.4928 	-1.55098e-78
0.4935 	-1.47502e-78
0.4942 	-1.11633e-77
0.4949 	-2.63009e-77
0.4956 	-1.54253e-77
0.4963 	-1.29892e-78
0.497 	-1.27855e-78
0.4977 	-1.25818e-78
0.4984 	-1.20164e-78
0.4991 	-7.13935e-78
0.4998 	-1.91254e-77
0.5005 	-1.3942e-77
0.5012 	-1.89088e-78
0.5019 	-1.01348e-78
0.5026 	-9.95774e-79
0.5033 	-9.57932e-79
0.504 	-4.20557e-78
0.5047 	-1.3472e-77
0.5054 	-1.21165e-77
0.5061 	-2.79462e-78
0.5068 	-7.85283e-79
0.5075 	-7.70424e-79
0.5082 	-7.48119e-79
0.5089 	-2.18445e-78
0.5096 	-9.18325e-78
0.5103 	-1.01635e-77
0.511 	-3.11897e-78
0.5117 	-5.95238e-79
0.5124 	-5.8319e-79
0.5131 	-5.71143e-79
0.5138 	-8.81111e-79
0.5145 	-6.04958e-78
0.5152 	-8.25425e-78
0.5159 	-3.04942e-78
0.5166 	-4.4222e-79
0.5173 	-4.32787e-79
0.518 	-4.23354e-79
0.5187 	-3.79339e-79
0.5194 	-3.8465e-78
0.5201 	-6.51233e-78
0.5208 	-2.74667e-78
0.5215 	-3.23286e-79
0.5222 	-3.16143e-79
0.5229 	-3.09001e-79
0.5236 	-2.80368e-79
0.5243 	-2.35618e-78
0.525 	-5.00859e-78
0.5257 	-2.33543e-78
0.5264 	-2.33926e-79
0.5271 	-2.28671e-79
0.5278 	-2.23417e-79
0.5285 	-2.05832e-79
0.5292 	-1.38505e-78
0.5299 	-3.23496e-78
0.5306 	-1.9007e-78
0.5313 	-1.68672e-79
0.532 	-1.64894e-79
0.5327 	-1.61116e-79
0.5334 	-1.50963e-79
0.5341 	-7.7572e-79
0.5348 	-2.04504e-78
0.5355 	-1.49342e-78
0.5362 	-2.13411e-79
0.5369 	-1.19506e-79
0.5376 	-1.16855e-79
0.5383 	-1.11462e-79
0.539 	-4.09671e-79
0.5397 	-1.26886e-78
0.5404 	-1.14192e-78
0.5411 	-2.75381e-79
0.5418 	-8.82831e-80
0.5425 	-8.64998e-80
0.5432 	-8.39871e-80
0.5439 	-2.01419e-79
0.5446 	-7.80138e-79
0.5453 	-8.60776e-79
0.546 	-2.77307e-79
0.5467 	-6.81954e-80
0.5474 	-6.70704e-80
0.5481 	-6.59455e-80
0.5488 	-9.01112e-80
0.5495 	-4.8435e-79
0.5502 	-6.52502e-79
0.5509 	-2.55435e-79
0.5516 	-5.65582e-80
0.5523 	-5.58811e-80
0.553 	-5.52039e-80
0.5537 	-5.34532e-80
0.5544 	-3.09871e-79
0.5551 	-5.0698e-79
0.5558 	-2.29002e-79
0.5565 	-5.01399e-80
0.5572 	-4.96946e-80
0.5579 	-4.92493e-80
0.5586 	-4.81463e-80
0.5593 	-2.05186e-79
0.56 	-4.05436e-79
0.5607 	-2.03894e-79
0.5614 	-4.54562e-80
0.5621 	-4.50822e-80
0.5628 	-4.47081e-80
0.5635 	-4.33411e-80
0.5642 	-1.38075e-79
0.5649 	-2.86668e-79
0.5656 	-1.79426e-79
0.5663 	-4.02216e-80
0.567 	-3.98572e-80
0.5677 	-3.94927e-80
0.5684 	-3.79881e-80
0.5691 	-9.20552e-80
0.5698 	-2.03439e-79
0.5705 	-1.54769e-79
0.5712 	-4.20778e-80
0.5719 	-3.37041e-80
0.5726 	-3.33563e-80
0.5733 	-3.21591e-80
0.574 	-5.96756e-80
0.5747 	-1.43423e-79
0.5754 	-1.30763e-79
0.5761 	-4.57993e-80
0.5768 	-2.73458e-80
0.5775 	-2.7033e-80
0.5782 	-2.63587e-80
0.5789 	-3.69436e-80
0.5796 	-9.97077e-80
0.5803 	-1.08212e-79
0.581 	-4.43699e-80
0.5817 	-2.13933e-80
0.5824 	-2.11209e-80
0.5831 	-2.08485e-80
0.5838 	-2.11796e-80
0.5845 	-6.75276e-80
0.5852 	-8.71244e-80
0.5859 	-3.98434e-80
0.5866 	-1.60869e-80
0.5873 	-1.5856e-80
0.588 	-1.56251e-80
0.5887 	-1.32097e-80
0.5894 	-4.38985e-80
0.5901 	-6.75524e-80
0.5908 	-3.35031e-80
0.5915 	-1.15468e-80
0.5922 	-1.13591e-80
0.5929 	-1.11713e-80
0.5936 	-9.49762e-81
0.5943 	-2.7009e-80
0.595 	-4.99438e-80
0.5957 	-2.63927e-80
0.5964 	-7.85697e-81
0.5971 	-7.71246e-81
0.5978 	-7.56796e-81
0.5985 	-6.51671e-81
0.5992 	-1.55168e-80
0.5999 	-3.05369e-80
0.6006 	-1.94154e-80
0.6013 	-5.0349e-81
0.602 	-4.93066e-81
0.6027 	-4.82641e-81
0.6034 	-4.2429e-81
0.6041 	-8.20988e-81
0.6048 	-1.74679e-80
0.6055 	-1.32735e-80
0.6062 	-3.69815e-81
0.6069 	-2.94917e-81
0.6076 	-2.87927e-81
0.6083 	-2.60566e-81
0.609 	-3.93835e-81
0.6097 	-9.2639e-81
0.6104 	-8.38715e-81
0.6111 	-2.85868e-81
0.6118 	-1.63995e-81
0.6125 	-1.59669e-81
0.6132 	-1.49983e-81
0.6139 	-1.67875e-81
0.6146 	-4.51564e-81
0.6153 	-4.8699e-81
0.616 	-1.914e-81
0.6167 	-8.42513e-82
0.6174 	-8.17977e-82
0.6181 	-7.93442e-82
0.6188 	-6.16579e-82
0.6195 	-2.00597e-81
0.6202 	-2.58326e-81
0.6209 	-1.13029e-81
0.6216 	-3.97445e-82
0.6223 	-3.8477e-82
0.623 	-3.72095e-82
0.6237 	-2.39498e-82
0.6244 	-8.05264e-82
0.6251 	-1.2448e-81
0.6258 	-5.92568e-82
0.6265 	-1.71152e-82
0.6272 	-1.65225e-82
0.6279 	-1.59298e-82
0.6286 	-1.07193e-82
0.6293 	-2.89649e-82
0.63 	-5.42068e-82
0.6307 	-2.76286e-82
0.6314 	-6.69197e-83
0.6321 	-6.4425e-83
0.6328 	-6.19302e-83
0.6335 	-4.41216e-83
0.6342 	-9.25568e-83
0.6349 	-1.85206e-82
0.6356 	-1.14574e-82
0.6363 	-2.36499e-83
0.637 	-2.27096e-83
0.6377 	-2.17693e-83
0.6384 	-1.65983e-83
0.6391 	-2.60479e-83
0.6398 	-5.66988e-83
0.6405 	-4.22777e-83
0.6412 	-9.82794e-84
0.6419 	-7.21608e-84
0.6426 	-6.8999e-84
0.6433 	-5.67811e-84
0.644 	-6.39752e-84
0.6447 	-1.55474e-83
0.6454 	-1.3924e-83
0.6461 	-4.22085e-84
0.6468 	-2.06705e-84
0.6475 	-1.97232e-84
0.6482 	-1.76192e-84
0.6489 	-1.35596e-84
0.6496 	-3.84064e-84
0.6503 	-4.13066e-84
0.651 	-1.49449e-84
0.6517 	-5.36664e-85
0.6524 	-5.11298e-85
0.6531 	-4.85933e-85
0.6538 	-2.42565e-85
0.6545 	-8.68908e-85
0.6552 	-1.12669e-84
0.6559 	-4.63069e-85
0.6566 	-1.28177e-85
0.6573 	-1.22033e-85
0.658 	-1.15888e-85
0.6587 	-5.01971e-86
0.6594 	-1.85834e-85
0.6601 	-2.93292e-85
0.6608 	-1.32712e-85
0.6615 	-2.89858e-86
0.6622 	-2.76019e-86
0.6629 	-2.62181e-86
0.6636 	-1.36591e-86
0.6643 	-3.91727e-86
0.665 	-7.65286e-86
0.6657 	-3.73275e-86
0.6664 	-6.46107e-87
0.6671 	-6.15737e-87
0.6678 	-5.85368e-87
0.6685 	-3.60924e-87
0.6692 	-8.33785e-87
0.6699 	-1.78842e-86
0.6706 	-1.07133e-86
0.6713 	-1.46249e-87
0.672 	-1.39419e-87
0.6727 	-1.32589e-87
0.6734 	-9.40875e-88
0.6741 	-1.74228e-87
0.6748 	-4.22504e-87
0.6755 	-3.09289e-87
0.6762 	-5.14771e-88
0.6769 	-3.15819e-88
0.6776 	-2.99916e-88
0.6783 	-2.38389e-88
0.679 	-3.291e-88
0.6797 	-9.43898e-88
0.6804 	-8.43469e-88
0.6811 	-2.06619e-88
0.6818 	-6.72909e-89
0.6825 	-6.36619e-89
0.6832 	-5.58079e-89
0.6839 	-4.97224e-89
0.6846 	-1.83226e-88
0.6853 	-2.00317e-88
0.686 	-6.21919e-89
0.6867 	-1.23838e-89
0.6874 	-1.16438e-89
0.6881 	-1.09038e-89
0.6888 	-4.9037e-90
0.6895 	-2.80766e-89
0.6902 	-3.77831e-89
0.6909 	-1.38237e-89
0.6916 	-1.78302e-90
0.6923 	-1.66157e-90
0.693 	-1.54012e-90
0.6937 	-4.41975e-91
0.6944 	-2.96007e-90
0.6951 	-4.9558e-90
0.6958 	-2.04859e-90
0.6965 	-1.74688e-91
0.6972 	-1.60851e-91
0.6979 	-1.47014e-91
0.6986 	-5.00975e-92
0.6993 	-2.27837e-92
0.7 	-2.53346e-92
