0 	1
0.0007 	1
0.0014 	1
0.0021 	1
0.0028 	1
0.0035 	1
0.0042 	1
0.0049 	1
0.0056 	1
0.0063 	1
0.007 	1
0.0077 	1
0.0084 	1
0.0091 	1
0.0098 	1
0.0105 	1
0.0112 	1
0.0119 	1
0.0126 	1
0.0133 	1
0.014 	1
0.0147 	1
0.0154 	1
0.0161 	1
0.0168 	1
0.0175 	1
0.0182 	1
0.0189 	1
0.0196 	1
0.0203 	1
0.021 	1
0.0217 	1
0.0224 	1
0.0231 	1
0.0238 	1
0.0245 	1
0.0252 	1
0.0259 	1
0.0266 	1
0.0273 	1
0.028 	1
0.0287 	1
0.0294 	1
0.0301 	1
0.0308 	1
0.0315 	1
0.0322 	1
0.0329 	1
0.0336 	1
0.0343 	1
0.035 	1
0.0357 	1
0.0364 	1
0.0371 	1
0.0378 	1
0.0385 	1
0.0392 	1
0.0399 	1
0.0406 	1
0.0413 	1
0.042 	1
0.0427 	1
0.0434 	1
0.0441 	1
0.0448 	1
0.0455 	1
0.0462 	1
0.0469 	1
0.0476 	1
0.0483 	1
0.049 	1
0.0497 	1
0.0504 	1
0.0511 	1
0.0518 	1
0.0525 	1
0.0532 	1
0.0539 	1
0.0546 	1
0.0553 	1
0.056 	1
0.0567 	1
0.0574 	1
0.0581 	1
0.0588 	1
0.0595 	1
0.0602 	1
0.0609 	1
0.0616 	1
0.0623 	1
0.063 	1
0.0637 	1
0.0644 	1
0.0651 	1
0.0658 	1
0.0665 	1
0.0672 	1
0.0679 	1
0.0686 	1
0.0693 	1
0.07 	1
0.0707 	1
0.0714 	1
0.0721 	1
0.0728 	1
0.0735 	1
0.0742 	1
0.0749 	1
0.0756 	1
0.0763 	1
0.077 	1
0.0777 	1
0.0784 	1
0.0791 	1
0.0798 	1
0.0805 	1
0.0812 	1
0.0819 	1
0.0826 	1
0.0833 	1
0.084 	1
0.0847 	1
0.0854 	1
0.0861 	1
0.0868 	1
0.0875 	1
0.0882 	1
0.0889 	1
0.0896 	1
0.0903 	1
0.091 	1
0.0917 	1
0.0924 	1
0.0931 	1
0.0938 	1
0.0945 	1
0.0952 	1
0.0959 	1
0.0966 	1
0.0973 	1
0.098 	1
0.0987 	1
0.0994 	1
0.1001 	1
0.1008 	1
0.1015 	1
0.1022 	1
0.1029 	1
0.1036 	1
0.1043 	1
0.105 	1
0.1057 	1
0.1064 	1
0.1071 	1
0.1078 	1
0.1085 	1
0.1092 	1
0.1099 	1
0.1106 	1
0.1113 	1
0.112 	1
0.1127 	1
0.1134 	1
0.1141 	1
0.1148 	1
0.1155 	1
0.1162 	1
0.1169 	1
0.1176 	1
0.1183 	1
0.119 	1
0.1197 	1
0.1204 	1
0.1211 	1
0.1218 	1
0.1225 	1
0.1232 	1
0.1239 	1
0.1246 	1
0.1253 	1
0.126 	1
0.1267 	1
0.1274 	1
0.1281 	1
0.1288 	1
0.1295 	1
0.1302 	1
0.1309 	1
0.1316 	1
0.1323 	1
0.133 	1
0.1337 	1
0.1344 	1
0.1351 	1
0.1358 	1
0.1365 	1
0.1372 	1
0.1379 	1
0.1386 	1
0.1393 	1
0.14 	1
0.1407 	1
0.1414 	1
0.1421 	1
0.1428 	1
0.1435 	1
0.1442 	1
0.1449 	1
0.1456 	1
0.1463 	1
0.147 	1
0.1477 	1
0.1484 	1
0.1491 	1
0.1498 	1
0.1505 	1
0.1512 	1
0.1519 	1
0.1526 	1
0.1533 	1
0.154 	1
0.1547 	1
0.1554 	1
0.1561 	1
0.1568 	1
0.1575 	1
0.1582 	1
0.1589 	1
0.1596 	1
0.1603 	1
0.161 	1
0.1617 	1
0.1624 	1
0.1631 	1
0.1638 	1
0.1645 	1
0.1652 	1
0.1659 	1
0.1666 	1
0.1673 	1
0.168 	1
0.1687 	1
0.1694 	1
0.1701 	1
0.1708 	1
0.1715 	1
0.1722 	1
0.1729 	1
0.1736 	1
0.1743 	1
0.175 	1
0.1757 	1
0.1764 	1
0.1771 	1
0.1778 	1
0.1785 	1
0.1792 	1
0.1799 	1
0.1806 	1
0.1813 	1
0.182 	1
0.1827 	1
0.1834 	1
0.1841 	1
0.1848 	1
0.1855 	1
0.1862 	1
0.1869 	1
0.1876 	1
0.1883 	1
0.189 	1
0.1897 	1
0.1904 	1
0.1911 	1
0.1918 	1
0.1925 	1
0.1932 	1
0.1939 	1
0.1946 	1
0.1953 	1
0.196 	1
0.1967 	1
0.1974 	1
0.1981 	1
0.1988 	1
0.1995 	1
0.2002 	1
0.2009 	1
0.2016 	1
0.2023 	1
0.203 	1
0.2037 	1
0.2044 	1
0.2051 	1
0.2058 	1
0.2065 	1
0.2072 	1
0.2079 	1
0.2086 	1
0.2093 	1
0.21 	1
0.2107 	1
0.2114 	1
0.2121 	1
0.2128 	1
0.2135 	1
0.2142 	1
0.2149 	1
0.2156 	1
0.2163 	1
0.217 	1
0.2177 	1
0.2184 	1
0.2191 	1
0.2198 	1
0.2205 	1
0.2212 	1
0.2219 	1
0.2226 	1
0.2233 	1
0.224 	1
0.2247 	1
0.2254 	1
0.2261 	1
0.2268 	1
0.2275 	1
0.2282 	1
0.2289 	1
0.2296 	1
0.2303 	1
0.231 	1
0.2317 	1
0.2324 	1
0.2331 	1
0.2338 	1
0.2345 	1
0.2352 	1
0.2359 	1
0.2366 	1
0.2373 	1
0.238 	1
0.2387 	1
0.2394 	1
0.2401 	1
0.2408 	1
0.2415 	1
0.2422 	1
0.2429 	1
0.2436 	1
0.2443 	1
0.245 	1
0.2457 	1
0.2464 	1
0.2471 	1
0.2478 	1
0.2485 	1
0.2492 	1
0.2499 	1
0.2506 	1
0.2513 	1
0.252 	1
0.2527 	1
0.2534 	1
0.2541 	1
0.2548 	1
0.2555 	1
0.2562 	1
0.2569 	1
0.2576 	1
0.2583 	1
0.259 	1
0.2597 	1
0.2604 	0.999998
0.2611 	0.99999
0.2618 	0.999982
0.2625 	0.999974
0.2632 	0.999966
0.2639 	0.999958
0.2646 	0.99995
0.2653 	0.999833
0.266 	0.999044
0.2667 	0.998255
0.2674 	0.997466
0.2681 	0.996677
0.2688 	0.995888
0.2695 	0.995098
0.2702 	0.994504
0.2709 	0.980861
0.2716 	0.96721
0.2723 	0.953558
0.273 	0.939906
0.2737 	0.926254
0.2744 	0.912602
0.2751 	0.898047
0.2758 	0.851473
0.2765 	0.79873
0.2772 	0.745987
0.2779 	0.693244
0.2786 	0.640501
0.2793 	0.587759
0.28 	0.527676
0.2807 	0.466768
0.2814 	0.411483
0.2821 	0.356197
0.2828 	0.300911
0.2835 	0.245625
0.2842 	0.190339
0.2849 	0.136989
0.2856 	0.107462
0.2863 	0.0910629
0.287 	0.0746649
0.2877 	0.0582668
0.2884 	0.0418687
0.2891 	0.0254707
0.2898 	0.00918284
0.2905 	0.0069398
0.2912 	0.00589276
0.2919 	0.00484586
0.2926 	0.00379896
0.2933 	0.00275207
0.294 	0.00170517
0.2947 	0.000658278
0.2954 	0.000397894
0.2961 	0.000338659
0.2968 	0.000279427
0.2975 	0.000220195
0.2982 	0.000160963
0.2989 	0.000101731
0.2996 	4.2499e-05
0.3003 	2.03375e-05
0.301 	1.73301e-05
0.3017 	1.43226e-05
0.3024 	1.1315e-05
0.3031 	8.3075e-06
0.3038 	5.29994e-06
0.3045 	2.29239e-06
0.3052 	8.21312e-07
0.3059 	6.95035e-07
0.3066 	5.75124e-07
0.3073 	4.552e-07
0.308 	3.35276e-07
0.3087 	2.15351e-07
0.3094 	9.54271e-08
0.3101 	2.48665e-08
0.3108 	1.91678e-08
0.3115 	1.58353e-08
0.3122 	1.25021e-08
0.3129 	9.16896e-09
0.3136 	5.83581e-09
0.3143 	2.50266e-09
0.315 	1.70079e-10
0.3157 	1.2286e-10
0.3164 	1.03068e-10
0.3171 	8.32865e-11
0.3178 	6.35051e-11
0.3185 	4.37237e-11
0.3192 	2.39422e-11
0.3199 	7.35402e-12
0.3206 	7.34238e-12
0.3213 	7.30025e-12
0.322 	7.25726e-12
0.3227 	7.21428e-12
0.3234 	7.17129e-12
0.3241 	7.12831e-12
0.3248 	7.08474e-12
0.3255 	6.97606e-12
0.3262 	6.79173e-12
0.3269 	6.6068e-12
0.3276 	6.42182e-12
0.3283 	6.23684e-12
0.329 	6.05186e-12
0.3297 	5.86688e-12
0.3304 	5.63681e-12
0.3311 	5.39447e-12
0.3318 	5.15225e-12
0.3325 	4.91005e-12
0.3332 	4.66785e-12
0.3339 	4.42566e-12
0.3346 	4.18346e-12
0.3353 	3.95097e-12
0.336 	3.73749e-12
0.3367 	3.52421e-12
0.3374 	3.31105e-12
0.3381 	3.09788e-12
0.3388 	2.88472e-12
0.3395 	2.67155e-12
0.3402 	2.45851e-12
0.3409 	2.2914e-12
0.3416 	2.12603e-12
0.3423 	1.96089e-12
0.343 	1.79575e-12
0.3437 	1.63061e-12
0.3444 	1.46547e-12
0.3451 	1.3059e-12
0.3458 	1.18872e-12
0.3465 	1.0851e-12
0.3472 	9.81747e-13
0.3479 	8.78398e-13
0.3486 	7.75049e-13
0.3493 	6.71701e-13
0.35 	5.78032e-13
0.3507 	5.07194e-13
0.3514 	4.56047e-13
0.3521 	4.05127e-13
0.3528 	3.54208e-13
0.3535 	3.03289e-13
0.3542 	2.52369e-13
0.3549 	2.05354e-13
0.3556 	1.73413e-13
0.3563 	1.53727e-13
0.357 	1.34172e-13
0.3577 	1.14618e-13
0.3584 	9.50628e-14
0.3591 	7.55081e-14
0.3598 	5.63301e-14
0.3605 	4.56545e-14
0.3612 	3.99635e-14
0.3619 	3.43195e-14
0.3626 	2.86791e-14
0.3633 	2.30387e-14
0.364 	1.73984e-14
0.3647 	1.1758e-14
0.3654 	8.81437e-15
0.3661 	7.63283e-15
0.3668 	6.4613e-15
0.3675 	5.29251e-15
0.3682 	4.12371e-15
0.3689 	2.95492e-15
0.3696 	1.78612e-15
0.3703 	1.16153e-15
0.371 	9.97052e-16
0.3717 	8.33953e-16
0.3724 	6.71619e-16
0.3731 	5.09285e-16
0.3738 	3.46951e-16
0.3745 	1.84617e-16
0.3752 	9.58905e-17
0.3759 	7.92861e-17
0.3766 	6.57362e-17
0.3773 	5.22946e-17
0.378 	3.88531e-17
0.3787 	2.54115e-17
0.3794 	1.19699e-17
0.3801 	4.52525e-18
0.3808 	3.14158e-18
0.3815 	2.60113e-18
0.3822 	2.06758e-18
0.3829 	1.53403e-18
0.3836 	1.00048e-18
0.3843 	4.66928e-19
0.385 	1.25704e-19
0.3857 	8.1197e-20
0.3864 	7.1101e-20
0.3871 	6.11275e-20
0.3878 	5.11541e-20
0.3885 	4.11806e-20
0.3892 	3.12072e-20
0.3899 	2.27545e-20
0.3906 	1.95217e-20
0.3913 	1.75203e-20
0.392 	1.55137e-20
0.3927 	1.35071e-20
0.3934 	1.15006e-20
0.3941 	9.49399e-21
0.3948 	7.53009e-21
0.3955 	6.0105e-21
0.3962 	5.25209e-21
0.3969 	4.49281e-21
0.3976 	3.73346e-21
0.3983 	2.97411e-21
0.399 	2.21476e-21
0.3997 	1.45541e-21
0.4004 	1.06599e-21
0.4011 	9.20359e-22
0.4018 	7.74787e-22
0.4025 	6.29231e-22
0.4032 	4.83675e-22
0.4039 	3.38118e-22
0.4046 	1.92562e-22
0.4053 	1.19202e-22
0.406 	1.01933e-22
0.4067 	8.4679e-23
0.4074 	6.74327e-23
0.4081 	5.01863e-23
0.4088 	3.29399e-23
0.4095 	1.56935e-23
0.4102 	7.21817e-24
0.4109 	5.78502e-24
0.4116 	4.76684e-24
0.4123 	3.75037e-24
0.413 	2.7339e-24
0.4137 	1.71743e-24
0.4144 	7.00958e-25
0.4151 	1.82684e-25
0.4158 	1.08374e-25
0.4165 	8.9254e-26
0.4172 	7.0217e-26
0.4179 	5.118e-26
0.4186 	3.2143e-26
0.4193 	1.3106e-26
0.42 	1.06487e-27
0.4207 	3.22326e-28
0.4214 	2.66386e-28
0.4221 	2.10954e-28
0.4228 	1.55521e-28
0.4235 	1.00088e-28
0.4242 	4.4656e-29
0.4249 	4.12559e-31
0.4256 	8.51067e-32
0.4263 	7.06029e-32
0.427 	5.63245e-32
0.4277 	4.20461e-32
0.4284 	2.77677e-32
0.4291 	1.34893e-32
0.4298 	7.39347e-36
0.4305 	2.16993e-36
0.4312 	1.80853e-36
0.4319 	1.45264e-36
0.4326 	1.09716e-36
0.4333 	7.41689e-37
0.434 	3.86216e-37
0.4347 	3.07426e-38
0.4354 	1.66733e-40
0.4361 	1.39634e-40
0.4368 	1.12853e-40
0.4375 	8.61593e-41
0.4382 	5.94655e-41
0.4389 	3.27718e-41
0.4396 	6.07807e-42
0.4403 	1.10716e-44
0.441 	9.31217e-45
0.4417 	7.57009e-45
0.4424 	5.83764e-45
0.4431 	4.10519e-45
0.4438 	2.37274e-45
0.4445 	6.40289e-46
0.4452 	2.04384e-48
0.4459 	1.24692e-48
0.4466 	1.02094e-48
0.4473 	7.96216e-49
0.448 	5.71493e-49
0.4487 	3.4677e-49
0.4494 	1.22048e-49
0.4501 	6.60712e-51
0.4508 	4.94036e-51
0.4515 	4.069e-51
0.4522 	3.20394e-51
0.4529 	2.33887e-51
0.4536 	1.4738e-51
0.4543 	6.08727e-52
0.455 	4.08084e-53
0.4557 	3.05179e-53
0.4564 	2.52128e-53
0.4571 	1.99741e-53
0.4578 	1.47354e-53
0.4585 	9.49674e-54
0.4592 	4.25805e-54
0.4599 	9.92429e-56
0.4606 	7.17725e-56
0.4613 	5.95166e-56
0.462 	4.74657e-56
0.4627 	3.54148e-56
0.4634 	2.3364e-56
0.4641 	1.13131e-56
0.4648 	5.78815e-59
0.4655 	3.96149e-59
0.4662 	3.30111e-59
0.4669 	2.65023e-59
0.4676 	2.00008e-59
0.4683 	1.34994e-59
0.469 	6.99788e-60
0.4697 	4.96396e-61
0.4704 	4.62095e-63
0.4711 	3.8699e-63
0.4718 	3.12651e-63
0.4725 	2.38521e-63
0.4732 	1.64392e-63
0.4739 	9.02618e-64
0.4746 	1.61319e-64
0.4753 	4.5167e-67
0.476 	3.79939e-67
0.4767 	3.08782e-67
0.4774 	2.37945e-67
0.4781 	1.67108e-67
0.4788 	9.62709e-68
0.4795 	2.54338e-68
0.4802 	4.66278e-71
0.4809 	3.61918e-71
0.4816 	2.95945e-71
0.4823 	2.30161e-71
0.483 	1.64378e-71
0.4837 	9.85944e-72
0.4844 	3.2811e-72
0.4851 	-8.25269e-75
0.4858 	-1.14605e-74
0.4865 	-1.49386e-74
0.4872 	-1.55142e-74
0.4879 	-1.60898e-74
0.4886 	-1.66655e-74
0.4893 	-1.72411e-74
0.49 	-2.30641e-74
0.4907 	-2.05302e-74
0.4914 	-2.41072e-74
0.4921 	-2.41082e-74
0.4928 	-2.41092e-74
0.4935 	-2.41103e-74
0.4942 	-2.41113e-74
0.4949 	-2.89666e-74
0.4956 	-2.62292e-74
0.4963 	-3.01835e-74
0.497 	-3.01837e-74
0.4977 	-3.01839e-74
0.4984 	-3.0184e-74
0.4991 	-3.01842e-74
0.4998 	-3.24328e-74
0.5005 	-3.14622e-74
0.5012 	-3.50832e-74
0.5019 	-3.53411e-74
0.5026 	-3.53404e-74
0.5033 	-3.53396e-74
0.504 	-3.53388e-74
0.5047 	-3.5338e-74
0.5054 	-3.58914e-74
0.5061 	-3.85455e-74
0.5068 	-3.91129e-74
0.5075 	-3.91111e-74
0.5082 	-3.91093e-74
0.5089 	-3.91075e-74
0.5096 	-3.91057e-74
0.5103 	-3.91981e-74
0.511 	-4.06516e-74
0.5117 	-4.11689e-74
0.5124 	-4.11661e-74
0.5131 	-4.11633e-74
0.5138 	-4.11605e-74
0.5145 	-4.11577e-74
0.5152 	-4.48755e-74
0.5159 	-4.13077e-74
0.5166 	-4.13888e-74
0.5173 	-4.13851e-74
0.518 	-4.13814e-74
0.5187 	-4.13777e-74
0.5194 	-4.13739e-74
0.5201 	-5.22973e-74
0.5208 	-4.05543e-74
0.5215 	-3.98775e-74
0.5222 	-3.9873e-74
0.5229 	-3.98685e-74
0.5236 	-3.9864e-74
0.5243 	-3.98595e-74
0.525 	-5.78257e-74
0.5257 	-3.85497e-74
0.5264 	-3.69282e-74
0.5271 	-3.69231e-74
0.5278 	-3.69181e-74
0.5285 	-3.69131e-74
0.5292 	-3.69081e-74
0.5299 	-4.75087e-74
0.5306 	-3.55398e-74
0.5313 	-3.29511e-74
0.532 	-3.29458e-74
0.5327 	-3.29405e-74
0.5334 	-3.29351e-74
0.5341 	-3.29298e-74
0.5348 	-3.65792e-74
0.5355 	-3.18209e-74
0.5362 	-2.86243e-74
0.5369 	-2.8391e-74
0.5376 	-2.83856e-74
0.5383 	-2.83803e-74
0.539 	-2.83749e-74
0.5397 	-2.83696e-74
0.5404 	-2.77038e-74
0.5411 	-2.43994e-74
0.5418 	-2.36873e-74
0.5425 	-2.36822e-74
0.5432 	-2.3677e-74
0.5439 	-2.36719e-74
0.5446 	-2.36668e-74
0.5453 	-2.34842e-74
0.546 	-2.03238e-74
0.5467 	-1.9192e-74
0.5474 	-1.91872e-74
0.5481 	-1.91825e-74
0.5488 	-1.91778e-74
0.5495 	-1.9173e-74
0.5502 	-2.15763e-74
0.5509 	-1.65711e-74
0.5516 	-1.51457e-74
0.5523 	-1.51415e-74
0.553 	-1.51373e-74
0.5537 	-1.51331e-74
0.5544 	-1.51289e-74
0.5551 	-2.02643e-74
0.5558 	-1.32432e-74
0.5565 	-1.16687e-74
0.5572 	-1.1665e-74
0.5579 	-1.16613e-74
0.5586 	-1.16577e-74
0.5593 	-1.1654e-74
0.56 	-1.82365e-74
0.5607 	-1.03849e-74
0.5614 	-8.79375e-75
0.5621 	-8.79065e-75
0.5628 	-8.78754e-75
0.5635 	-8.78444e-75
0.5642 	-8.78134e-75
0.5649 	-1.19631e-74
0.5656 	-7.99792e-75
0.5663 	-6.49324e-75
0.567 	-6.49066e-75
0.5677 	-6.48809e-75
0.5684 	-6.48551e-75
0.5691 	-6.48293e-75
0.5698 	-7.44461e-75
0.5705 	-6.0525e-75
0.5712 	-4.78722e-75
0.5719 	-4.69488e-75
0.5726 	-4.69276e-75
0.5733 	-4.69064e-75
0.574 	-4.68852e-75
0.5747 	-4.6864e-75
0.5754 	-4.49753e-75
0.5761 	-3.52794e-75
0.5768 	-3.31883e-75
0.5775 	-3.31711e-75
0.5782 	-3.3154e-75
0.5789 	-3.31369e-75
0.5796 	-3.31197e-75
0.5803 	-3.27451e-75
0.581 	-2.54675e-75
0.5817 	-2.28596e-75
0.5824 	-2.2846e-75
0.5831 	-2.28325e-75
0.5838 	-2.2819e-75
0.5845 	-2.28054e-75
0.5852 	-2.70524e-75
0.5859 	-1.7974e-75
0.5866 	-1.53089e-75
0.5873 	-1.52981e-75
0.588 	-1.52873e-75
0.5887 	-1.52766e-75
0.5894 	-1.52658e-75
0.5901 	-2.29323e-75
0.5908 	-1.23863e-75
0.5915 	-9.96488e-76
0.5922 	-9.95602e-76
0.5929 	-9.94715e-76
0.5936 	-9.93828e-76
0.5943 	-9.92942e-76
0.595 	-1.83901e-75
0.5957 	-8.32948e-76
0.5964 	-6.31095e-76
0.5971 	-6.30358e-76
0.5978 	-6.29621e-76
0.5985 	-6.28884e-76
0.5992 	-6.28146e-76
0.5999 	-9.80291e-76
0.6006 	-5.46549e-76
0.6013 	-3.89255e-76
0.602 	-3.88662e-76
0.6027 	-3.88069e-76
0.6034 	-3.87476e-76
0.6041 	-3.86883e-76
0.6048 	-4.78782e-76
0.6055 	-3.49958e-76
0.6062 	-2.41667e-76
0.6069 	-2.33519e-76
0.6076 	-2.33073e-76
0.6083 	-2.32628e-76
0.609 	-2.32182e-76
0.6097 	-2.31737e-76
0.6104 	-2.1871e-76
0.6111 	-1.51471e-76
0.6118 	-1.36818e-76
0.6125 	-1.36506e-76
0.6132 	-1.36194e-76
0.6139 	-1.35882e-76
0.6146 	-1.3557e-76
0.6153 	-1.33452e-76
0.616 	-9.28653e-77
0.6167 	-7.82371e-77
0.6174 	-7.80305e-77
0.6181 	-7.78239e-77
0.6188 	-7.76172e-77
0.6195 	-7.74106e-77
0.6202 	-9.81438e-77
0.6209 	-5.56917e-77
0.6216 	-4.37039e-77
0.6223 	-4.35728e-77
0.623 	-4.34417e-77
0.6237 	-4.33106e-77
0.6244 	-4.31795e-77
0.6251 	-7.22615e-77
0.6258 	-3.2671e-77
0.6265 	-2.38663e-77
0.6272 	-2.3786e-77
0.6279 	-2.37058e-77
0.6286 	-2.36256e-77
0.6293 	-2.35453e-77
0.63 	-4.94626e-77
0.6307 	-1.87494e-77
0.6314 	-1.27475e-77
0.6321 	-1.26999e-77
0.6328 	-1.26523e-77
0.6335 	-1.26047e-77
0.6342 	-1.25572e-77
0.6349 	-2.15194e-77
0.6356 	-1.05265e-77
0.6363 	-6.6633e-78
0.637 	-6.6359e-78
0.6377 	-6.60849e-78
0.6384 	-6.58109e-78
0.6391 	-6.55368e-78
0.6398 	-8.55406e-78
0.6405 	-5.78275e-78
0.6412 	-3.56805e-78
0.6419 	-3.39559e-78
0.6426 	-3.38023e-78
0.6433 	-3.36488e-78
0.644 	-3.34952e-78
0.6447 	-3.33416e-78
0.6454 	-3.10956e-78
0.6461 	-1.95672e-78
0.6468 	-1.7031e-78
0.6475 	-1.69471e-78
0.6482 	-1.68633e-78
0.6489 	-1.67794e-78
0.6496 	-1.66956e-78
0.6503 	-1.63772e-78
0.651 	-1.05047e-78
0.6517 	-8.37869e-79
0.6524 	-8.334e-79
0.6531 	-8.28932e-79
0.6538 	-8.24463e-79
0.6545 	-8.19994e-79
0.6552 	-1.09302e-78
0.6559 	-5.52235e-79
0.6566 	-4.04587e-79
0.6573 	-4.02259e-79
0.658 	-3.99931e-79
0.6587 	-3.97603e-79
0.6594 	-3.95275e-79
0.6601 	-7.16754e-79
0.6608 	-2.8443e-79
0.6615 	-1.91942e-79
0.6622 	-1.90756e-79
0.6629 	-1.8957e-79
0.6636 	-1.88384e-79
0.6643 	-1.87198e-79
0.665 	-4.32999e-79
0.6657 	-1.43615e-79
0.6664 	-8.9508e-80
0.6671 	-8.89159e-80
0.6678 	-8.83238e-80
0.6685 	-8.77316e-80
0.6692 	-8.71395e-80
0.6699 	-1.61168e-79
0.6706 	-7.111e-80
0.6713 	-4.10265e-80
0.672 	-4.07364e-80
0.6727 	-4.04463e-80
0.6734 	-4.01562e-80
0.6741 	-3.98661e-80
0.6748 	-5.44838e-80
0.6755 	-3.45261e-80
0.6762 	-1.95361e-80
0.6769 	-1.83358e-80
0.6776 	-1.81963e-80
0.6783 	-1.80568e-80
0.679 	-1.79174e-80
0.6797 	-1.77779e-80
0.6804 	-1.64301e-80
0.6811 	-9.59848e-81
0.6818 	-8.08272e-81
0.6825 	-8.01675e-81
0.6832 	-7.95077e-81
0.6839 	-7.8848e-81
0.6846 	-7.81882e-81
0.6853 	-7.6397e-81
0.686 	-4.54677e-81
0.6867 	-3.42221e-81
0.6874 	-3.39118e-81
0.6881 	-3.36016e-81
0.6888 	-3.32913e-81
0.6895 	-3.29811e-81
0.6902 	-4.59994e-81
0.6909 	-1.99112e-81
0.6916 	-1.27231e-81
0.6923 	-1.25744e-81
0.693 	-1.24258e-81
0.6937 	-1.22771e-81
0.6944 	-1.21285e-81
0.6951 	-2.37679e-81
0.6958 	-5.77576e-82
0.6965 	-4.77599e-83
0.6972 	-4.11634e-83
0.6979 	-3.45669e-83
0.6986 	-2.79704e-83
0.6993 	-2.13739e-83
0.7 	-1.26683e-83
