0 	1
0.0007 	1
0.0014 	1
0.0021 	1
0.0028 	1
0.0035 	1
0.0042 	1
0.0049 	1
0.0056 	1
0.0063 	1
0.007 	1
0.0077 	1
0.0084 	1
0.0091 	1
0.0098 	1
0.0105 	1
0.0112 	1
0.0119 	1
0.0126 	1
0.0133 	1
0.014 	1
0.0147 	1
0.0154 	1
0.0161 	1
0.0168 	1
0.0175 	1
0.0182 	1
0.0189 	1
0.0196 	1
0.0203 	1
0.021 	1
0.0217 	1
0.0224 	1
0.0231 	1
0.0238 	1
0.0245 	1
0.0252 	1
0.0259 	1
0.0266 	1
0.0273 	1
0.028 	1
0.0287 	1
0.0294 	1
0.0301 	1
0.0308 	1
0.0315 	1
0.0322 	1
0.0329 	1
0.0336 	1
0.0343 	1
0.035 	1
0.0357 	1
0.0364 	1
0.0371 	1
0.0378 	1
0.0385 	1
0.0392 	1
0.0399 	1
0.0406 	1
0.0413 	1
0.042 	1
0.0427 	1
0.0434 	1
0.0441 	1
0.0448 	1
0.0455 	1
0.0462 	1
0.0469 	1
0.0476 	1
0.0483 	1
0.049 	1
0.0497 	1
0.0504 	1
0.0511 	1
0.0518 	1
0.0525 	1
0.0532 	1
0.0539 	1
0.0546 	1
0.0553 	1
0.056 	1
0.0567 	1
0.0574 	1
0.0581 	1
0.0588 	1
0.0595 	1
0.0602 	1
0.0609 	1
0.0616 	1
0.0623 	1
0.063 	1
0.0637 	1
0.0644 	1
0.0651 	1
0.0658 	1
0.0665 	1
0.0672 	1
0.0679 	1
0.0686 	1
0.0693 	1
0.07 	1
0.0707 	1
0.0714 	1
0.0721 	1
0.0728 	1
0.0735 	1
0.0742 	1
0.0749 	1
0.0756 	1
0.0763 	1
0.077 	1
0.0777 	1
0.0784 	1
0.0791 	1
0.0798 	1
0.0805 	1
0.0812 	1
0.0819 	1
0.0826 	1
0.0833 	1
0.084 	1
0.0847 	1
0.0854 	1
0.0861 	1
0.0868 	1
0.0875 	1
0.0882 	1
0.0889 	1
0.0896 	1
0.0903 	1
0.091 	1
0.0917 	1
0.0924 	1
0.0931 	1
0.0938 	1
0.0945 	1
0.0952 	1
0.0959 	1
0.0966 	1
0.0973 	1
0.098 	1
0.0987 	1
0.0994 	1
0.1001 	1
0.1008 	1
0.1015 	1
0.1022 	1
0.1029 	1
0.1036 	1
0.1043 	1
0.105 	1
0.1057 	1
0.1064 	1
0.1071 	1
0.1078 	1
0.1085 	1
0.1092 	1
0.1099 	1
0.1106 	1
0.1113 	1
0.112 	1
0.1127 	1
0.1134 	1
0.1141 	1
0.1148 	1
0.1155 	1
0.1162 	1
0.1169 	1
0.1176 	1
0.1183 	1
0.119 	1
0.1197 	1
0.1204 	1
0.1211 	1
0.1218 	1
0.1225 	1
0.1232 	1
0.1239 	1
0.1246 	1
0.1253 	1
0.126 	1
0.1267 	1
0.1274 	1
0.1281 	1
0.1288 	1
0.1295 	1
0.1302 	1
0.1309 	1
0.1316 	1
0.1323 	1
0.133 	1
0.1337 	1
0.1344 	1
0.1351 	1
0.1358 	1
0.1365 	1
0.1372 	1
0.1379 	1
0.1386 	1
0.1393 	1
0.14 	1
0.1407 	1
0.1414 	1
0.1421 	1
0.1428 	1
0.1435 	1
0.1442 	1
0.1449 	1
0.1456 	1
0.1463 	1
0.147 	1
0.1477 	1
0.1484 	1
0.1491 	1
0.1498 	1
0.1505 	1
0.1512 	1
0.1519 	1
0.1526 	1
0.1533 	1
0.154 	1
0.1547 	1
0.1554 	1
0.1561 	1
0.1568 	1
0.1575 	1
0.1582 	1
0.1589 	1
0.1596 	1
0.1603 	1
0.161 	1
0.1617 	1
0.1624 	1
0.1631 	1
0.1638 	1
0.1645 	1
0.1652 	1
0.1659 	1
0.1666 	1
0.1673 	1
0.168 	1
0.1687 	1
0.1694 	1
0.1701 	1
0.1708 	1
0.1715 	1
0.1722 	1
0.1729 	1
0.1736 	1
0.1743 	1
0.175 	1
0.1757 	1
0.1764 	1
0.1771 	1
0.1778 	1
0.1785 	1
0.1792 	1
0.1799 	1
0.1806 	1
0.1813 	1
0.182 	1
0.1827 	1
0.1834 	1
0.1841 	1
0.1848 	1
0.1855 	1
0.1862 	1
0.1869 	1
0.1876 	1
0.1883 	1
0.189 	1
0.1897 	1
0.1904 	1
0.1911 	1
0.1918 	1
0.1925 	1
0.1932 	1
0.1939 	1
0.1946 	1
0.1953 	1
0.196 	1
0.1967 	1
0.1974 	1
0.1981 	1
0.1988 	1
0.1995 	1
0.2002 	1
0.2009 	1
0.2016 	1
0.2023 	1
0.203 	1
0.2037 	1
0.2044 	1
0.2051 	1
0.2058 	0.999999
0.2065 	0.999997
0.2072 	0.999995
0.2079 	0.999994
0.2086 	0.999992
0.2093 	0.99999
0.21 	0.999983
0.2107 	0.999866
0.2114 	0.999557
0.2121 	0.999249
0.2128 	0.998941
0.2135 	0.998633
0.2142 	0.998325
0.2149 	0.997628
0.2156 	0.995093
0.2163 	0.986839
0.217 	0.978586
0.2177 	0.970332
0.2184 	0.962079
0.2191 	0.953825
0.2198 	0.940954
0.2205 	0.918562
0.2212 	0.872881
0.2219 	0.8272
0.2226 	0.781519
0.2233 	0.735837
0.224 	0.690156
0.2247 	0.63747
0.2254 	0.555778
0.2261 	0.494285
0.2268 	0.433878
0.2275 	0.37347
0.2282 	0.313062
0.2289 	0.252654
0.2296 	0.193601
0.2303 	0.158583
0.231 	0.132168
0.2317 	0.108213
0.2324 	0.0842583
0.2331 	0.0603036
0.2338 	0.0363488
0.2345 	0.0123941
0.2352 	0.00891695
0.2359 	0.00741111
0.2366 	0.00607804
0.2373 	0.004745
0.238 	0.00341196
0.2387 	0.00207892
0.2394 	0.000745881
0.2401 	0.000385693
0.2408 	0.000319335
0.2415 	0.00026419
0.2422 	0.000209045
0.2429 	0.000153901
0.2436 	9.87559e-05
0.2443 	4.36112e-05
0.245 	2.08735e-05
0.2457 	1.72006e-05
0.2464 	1.42944e-05
0.2471 	1.13882e-05
0.2478 	8.48202e-06
0.2485 	5.57584e-06
0.2492 	2.66966e-06
0.2499 	1.08247e-06
0.2506 	8.95561e-07
0.2513 	7.47092e-07
0.252 	5.9864e-07
0.2527 	4.50187e-07
0.2534 	3.01734e-07
0.2541 	1.53282e-07
0.2548 	5.23352e-08
0.2555 	4.35626e-08
0.2562 	3.64691e-08
0.2569 	2.93778e-08
0.2576 	2.22867e-08
0.2583 	1.51957e-08
0.259 	8.10457e-09
0.2597 	2.32323e-09
0.2604 	1.9592e-09
0.2611 	1.64267e-09
0.2618 	1.33215e-09
0.2625 	1.02168e-09
0.2632 	7.11209e-10
0.2639 	4.00739e-10
0.2646 	1.04961e-10
0.2653 	9.08468e-11
0.266 	7.66817e-11
0.2667 	6.34212e-11
0.2674 	5.01664e-11
0.2681 	3.69115e-11
0.2688 	2.36567e-11
0.2695 	1.04019e-11
0.2702 	8.14961e-12
0.2709 	7.04624e-12
0.2716 	6.06037e-12
0.2723 	5.0752e-12
0.273 	4.09004e-12
0.2737 	3.10488e-12
0.2744 	2.11971e-12
0.2751 	1.72746e-12
0.2758 	1.52241e-12
0.2765 	1.34534e-12
0.2772 	1.16845e-12
0.2779 	9.91551e-13
0.2786 	8.14655e-13
0.2793 	6.37759e-13
0.28 	5.31346e-13
0.2807 	4.69701e-13
0.2814 	4.18331e-13
0.2821 	3.6702e-13
0.2828 	3.15709e-13
0.2835 	2.64397e-13
0.2842 	2.13086e-13
0.2849 	1.75091e-13
0.2856 	1.52226e-13
0.2863 	1.3433e-13
0.287 	1.16459e-13
0.2877 	9.85871e-14
0.2884 	8.07155e-14
0.2891 	6.28439e-14
0.2898 	4.85486e-14
0.2905 	4.12535e-14
0.2912 	3.59354e-14
0.2919 	3.06252e-14
0.2926 	2.53155e-14
0.2933 	2.00058e-14
0.294 	1.46962e-14
0.2947 	1.01014e-14
0.2954 	8.46693e-15
0.2961 	7.29671e-15
0.2968 	6.15413e-15
0.2975 	5.01196e-15
0.2982 	3.86979e-15
0.2989 	2.72762e-15
0.2996 	1.62732e-15
0.3003 	1.36245e-15
0.301 	1.16005e-15
0.3017 	9.75665e-16
0.3024 	7.91378e-16
0.3031 	6.0709e-16
0.3038 	4.22802e-16
0.3045 	2.38515e-16
0.3052 	1.87763e-16
0.3059 	1.58093e-16
0.3066 	1.32918e-16
0.3073 	1.07757e-16
0.308 	8.25965e-17
0.3087 	5.74359e-17
0.3094 	3.22753e-17
0.3101 	2.28366e-17
0.3108 	1.89579e-17
0.3115 	1.59042e-17
0.3122 	1.28521e-17
0.3129 	9.80008e-18
0.3136 	6.74804e-18
0.3143 	3.69599e-18
0.315 	2.2523e-18
0.3157 	1.83954e-18
0.3164 	1.53936e-18
0.3171 	1.23932e-18
0.3178 	9.39289e-19
0.3185 	6.39254e-19
0.3192 	3.39219e-19
0.3199 	1.65503e-19
0.3206 	1.33208e-19
0.3213 	1.11432e-19
0.322 	8.96586e-20
0.3227 	6.78854e-20
0.3234 	4.61122e-20
0.3241 	2.43389e-20
0.3248 	9.14122e-21
0.3255 	7.22668e-21
0.3262 	6.04924e-21
0.3269 	4.87117e-21
0.3276 	3.69305e-21
0.3283 	2.51493e-21
0.329 	1.33681e-21
0.3297 	3.65358e-22
0.3304 	2.83599e-22
0.3311 	2.36278e-22
0.3318 	1.90572e-22
0.3325 	1.4485e-22
0.3332 	9.91286e-23
0.3339 	5.34071e-23
0.3346 	9.65087e-24
0.3353 	7.40302e-24
0.336 	6.04416e-24
0.3367 	4.88831e-24
0.3374 	3.73123e-24
0.3381 	2.57414e-24
0.3388 	1.41706e-24
0.3395 	2.59977e-25
0.3402 	1.1328e-25
0.3409 	8.98028e-26
0.3416 	7.29132e-26
0.3423 	5.59798e-26
0.343 	3.90464e-26
0.3437 	2.2113e-26
0.3444 	5.17959e-27
0.3451 	8.69544e-28
0.3458 	6.55381e-28
0.3465 	5.34795e-28
0.3472 	4.13551e-28
0.3479 	2.92307e-28
0.3486 	1.71064e-28
0.3493 	4.98196e-29
0.35 	2.7322e-30
0.3507 	1.8691e-30
0.3514 	1.5343e-30
0.3521 	1.19599e-30
0.3528 	8.57683e-31
0.3535 	5.19374e-31
0.3542 	1.81066e-31
0.3549 	2.49671e-33
0.3556 	1.48667e-33
0.3563 	1.22855e-33
0.357 	9.65588e-34
0.3577 	7.02623e-34
0.3584 	4.39659e-34
0.3591 	1.76694e-34
0.3598 	4.14439e-37
0.3605 	2.07326e-37
0.3612 	1.72496e-37
0.3619 	1.36722e-37
0.3626 	1.00876e-37
0.3633 	6.503e-38
0.364 	2.91839e-38
0.3647 	1.93114e-41
0.3654 	1.09979e-41
0.3661 	8.49154e-42
0.3668 	6.78665e-42
0.3675 	5.07202e-42
0.3682 	3.35739e-42
0.3689 	1.64275e-42
0.3696 	2.22205e-45
0.3703 	1.64864e-45
0.371 	1.07842e-45
0.3717 	8.68677e-46
0.3724 	6.56854e-46
0.3731 	4.45031e-46
0.3738 	2.33208e-46
0.3745 	2.13857e-47
0.3752 	1.98723e-49
0.3759 	1.0909e-49
0.3766 	8.85228e-50
0.3773 	6.76654e-50
0.378 	4.6808e-50
0.3787 	2.59505e-50
0.3794 	5.09312e-51
0.3801 	2.48007e-53
0.3808 	1.19192e-53
0.3815 	9.74001e-54
0.3822 	7.51997e-54
0.3829 	5.29993e-54
0.3836 	3.07989e-54
0.3843 	8.59852e-55
0.385 	2.98918e-57
0.3857 	1.2814e-57
0.3864 	1.05409e-57
0.3871 	8.21424e-58
0.3878 	5.88754e-58
0.3885 	3.56084e-58
0.3892 	1.23414e-58
0.3899 	2.92121e-61
0.3906 	1.33854e-61
0.3913 	1.10806e-61
0.392 	8.70967e-62
0.3927 	6.33874e-62
0.3934 	3.96782e-62
0.3941 	1.59689e-62
0.3948 	2.73901e-65
0.3955 	1.34665e-65
0.3962 	1.12094e-65
0.3969 	8.88621e-66
0.3976 	6.55793e-66
0.3983 	4.22964e-66
0.399 	1.90135e-66
0.3997 	2.44992e-69
0.4004 	1.3946e-69
0.4011 	1.08513e-69
0.4018 	8.67504e-70
0.4025 	6.48423e-70
0.4032 	4.29341e-70
0.4039 	2.10259e-70
0.4046 	2.08669e-73
0.4053 	1.58977e-73
0.406 	1.00503e-73
0.4067 	8.09848e-74
0.4074 	6.12461e-74
0.4081 	4.15073e-74
0.4088 	2.17685e-74
0.4095 	2.02976e-75
0.4102 	1.66878e-77
0.4109 	8.92113e-78
0.4116 	7.24221e-78
0.4123 	5.53653e-78
0.413 	3.83085e-78
0.4137 	2.12517e-78
0.4144 	4.1949e-79
0.4151 	1.64095e-81
0.4158 	7.62152e-82
0.4165 	6.23059e-82
0.4172 	4.811e-82
0.4179 	3.39142e-82
0.4186 	1.97183e-82
0.4193 	5.52242e-83
0.42 	1.46362e-85
0.4207 	5.86392e-86
0.4214 	4.77612e-86
0.4221 	3.63307e-86
0.4228 	2.49002e-86
0.4235 	1.34696e-86
0.4242 	2.03907e-87
0.4249 	-5.69857e-87
0.4256 	-3.32073e-87
0.4263 	-4.58466e-88
0.427 	-4.54054e-88
0.4277 	-4.49642e-88
0.4284 	-4.45229e-88
0.4291 	-4.40817e-88
0.4298 	-5.35136e-88
0.4305 	-3.49186e-88
0.4312 	-1.08482e-88
0.4319 	-7.72098e-89
0.4326 	-6.20484e-89
0.4333 	-4.6887e-89
0.434 	-3.17256e-89
0.4347 	-2.14326e-89
0.4354 	-1.61979e-89
0.4361 	-6.92372e-90
0.4368 	-4.3032e-90
0.4375 	-3.40166e-90
0.4382 	-2.50012e-90
0.4389 	-1.59858e-90
0.4396 	-7.48885e-91
0.4403 	-6.95424e-91
0.441 	-3.16266e-91
0.4417 	-1.80755e-91
0.4424 	-1.42933e-91
0.4431 	-1.05111e-91
0.4438 	-6.7289e-92
0.4445 	-2.9467e-92
0.4452 	-2.71869e-92
0.4459 	-1.26141e-92
0.4466 	-6.92468e-93
0.4473 	-5.47657e-93
0.448 	-4.02846e-93
0.4487 	-2.58035e-93
0.4494 	-1.13224e-93
0.4501 	-9.15246e-94
0.4508 	-4.21386e-94
0.4515 	-2.30676e-94
0.4522 	-1.8226e-94
0.4529 	-1.33844e-94
0.4536 	-8.54276e-95
0.4543 	-3.70115e-95
0.455 	-2.35101e-95
0.4557 	-1.05426e-95
0.4564 	-6.32118e-96
0.4571 	-5.02379e-96
0.4578 	-3.7264e-96
0.4585 	-2.42902e-96
0.4592 	-1.13163e-96
0.4599 	-5.36022e-97
0.4606 	-2.70812e-97
0.4613 	-1.88794e-97
0.462 	-1.53862e-97
0.4627 	-1.18931e-97
0.4634 	-8.40003e-98
0.4641 	-4.90692e-98
0.4648 	-2.95457e-98
0.4655 	-1.71901e-98
0.4662 	-1.18392e-98
0.4669 	-9.71893e-99
0.4676 	-7.84719e-99
0.4683 	-5.97544e-99
0.469 	-4.1037e-99
0.4697 	-2.82346e-99
0.4704 	-2.04149e-99
0.4711 	-1.26359e-99
0.4718 	-9.88501e-100
0.4725 	-8.3304e-100
0.4732 	-6.77579e-100
0.4739 	-5.22119e-100
0.4746 	-3.80816e-100
0.4753 	-3.6601e-100
0.476 	-1.9187e-100
0.4767 	-1.31183e-100
0.4774 	-1.14167e-100
0.4781 	-9.71507e-101
0.4788 	-8.01347e-101
0.4795 	-6.31187e-101
0.4802 	-7.0554e-101
0.4809 	-3.4135e-101
0.4816 	-1.88152e-101
0.4823 	-1.68005e-101
0.483 	-1.47859e-101
0.4837 	-1.27712e-101
0.4844 	-1.07566e-101
0.4851 	-1.34463e-101
0.4858 	-6.44869e-102
0.4865 	-2.78269e-102
0.4872 	-2.56312e-102
0.4879 	-2.34355e-102
0.4886 	-2.12398e-102
0.4893 	-1.90441e-102
0.49 	-2.65853e-102
0.4907 	-1.30468e-102
0.4914 	-4.35424e-103
0.4921 	-4.12013e-103
0.4928 	-3.88601e-103
0.4935 	-3.6519e-103
0.4942 	-3.41779e-103
0.4949 	-4.51526e-103
0.4956 	-2.69456e-103
0.4963 	-7.30291e-104
0.497 	-7.06641e-104
0.4977 	-6.82991e-104
0.4984 	-6.5934e-104
0.4991 	-6.3569e-104
0.4998 	-7.83649e-104
0.5005 	-5.71396e-104
0.5012 	-1.63725e-104
0.5019 	-1.32288e-104
0.5026 	-1.29793e-104
0.5033 	-1.27298e-104
0.504 	-1.24803e-104
0.5047 	-1.40994e-104
0.5054 	-1.26151e-104
0.5061 	-4.3733e-105
0.5068 	-2.5956e-105
0.5075 	-2.56053e-105
0.5082 	-2.52545e-105
0.5089 	-2.49038e-105
0.5096 	-2.52935e-105
0.5103 	-2.82078e-105
0.511 	-1.1005e-105
0.5117 	-5.07802e-106
0.5124 	-5.01503e-106
0.5131 	-4.95204e-106
0.5138 	-4.88904e-106
0.5145 	-4.82605e-106
0.5152 	-6.10932e-106
0.5159 	-2.60524e-106
0.5166 	-9.70342e-107
0.5173 	-9.58205e-107
0.518 	-9.46069e-107
0.5187 	-9.33932e-107
0.5194 	-9.21796e-107
0.5201 	-1.27412e-106
0.5208 	-5.83006e-107
0.5215 	-1.80189e-107
0.5222 	-1.7787e-107
0.5229 	-1.7555e-107
0.5236 	-1.73231e-107
0.5243 	-1.70911e-107
0.525 	-2.55985e-107
0.5257 	-1.24085e-107
0.5264 	-3.25005e-108
0.5271 	-3.20689e-108
0.5278 	-3.16374e-108
0.5285 	-3.12058e-108
0.5292 	-3.07743e-108
0.5299 	-4.23426e-108
0.5306 	-2.52461e-108
0.5313 	-5.69713e-109
0.532 	-5.6192e-109
0.5327 	-5.54127e-109
0.5334 	-5.46334e-109
0.5341 	-5.38541e-109
0.5348 	-6.75575e-109
0.5355 	-4.92958e-109
0.5362 	-1.23486e-109
0.5369 	-9.58257e-110
0.5376 	-9.44596e-110
0.5383 	-9.30935e-110
0.539 	-9.17274e-110
0.5397 	-1.0397e-109
0.5404 	-9.31483e-110
0.5411 	-2.96395e-110
0.5418 	-1.59387e-110
0.5425 	-1.57059e-110
0.5432 	-1.54731e-110
0.5439 	-1.52404e-110
0.5446 	-1.54387e-110
0.5453 	-1.72242e-110
0.546 	-6.36731e-111
0.5467 	-2.59308e-111
0.5474 	-2.55444e-111
0.5481 	-2.5158e-111
0.5488 	-2.47715e-111
0.5495 	-2.43851e-111
0.5502 	-3.08197e-111
0.5509 	-1.27054e-111
0.5516 	-4.13148e-112
0.5523 	-4.06877e-112
0.553 	-4.00606e-112
0.5537 	-3.94335e-112
0.5544 	-3.88064e-112
0.5551 	-5.35278e-112
0.5558 	-2.39798e-112
0.5565 	-6.43358e-113
0.5572 	-6.3339e-113
0.5579 	-6.23423e-113
0.5586 	-6.13455e-113
0.5593 	-6.03487e-113
0.56 	-9.01665e-113
0.5607 	-4.31507e-113
0.5614 	-9.76618e-114
0.5621 	-9.61133e-114
0.5628 	-9.45647e-114
0.5635 	-9.30162e-114
0.5642 	-9.14676e-114
0.5649 	-1.25491e-113
0.5656 	-7.43114e-114
0.5663 	-1.4444e-114
0.567 	-1.42096e-114
0.5677 	-1.39752e-114
0.5684 	-1.37408e-114
0.5691 	-1.35063e-114
0.5698 	-1.68875e-114
0.5705 	-1.22925e-114
0.5712 	-2.76139e-115
0.5719 	-2.04848e-115
0.5726 	-2.01393e-115
0.5733 	-1.97937e-115
0.574 	-1.94481e-115
0.5747 	-2.19618e-115
0.5754 	-1.96758e-115
0.5761 	-5.86725e-116
0.5768 	-2.88474e-116
0.5775 	-2.83509e-116
0.5782 	-2.78543e-116
0.5789 	-2.73577e-116
0.5796 	-2.75979e-116
0.5803 	-3.0792e-116
0.581 	-1.09257e-116
0.5817 	-3.97799e-117
0.5824 	-3.9083e-117
0.5831 	-3.83862e-117
0.5838 	-3.76894e-117
0.5845 	-3.69925e-117
0.5852 	-4.66804e-117
0.5859 	-1.87443e-117
0.5866 	-5.3875e-118
0.5873 	-5.29176e-118
0.588 	-5.19603e-118
0.5887 	-5.10029e-118
0.5894 	-5.00456e-118
0.5901 	-6.88951e-118
0.5908 	-3.0364e-118
0.5915 	-7.17739e-119
0.5922 	-7.04819e-119
0.5929 	-6.91899e-119
0.5936 	-6.78978e-119
0.5943 	-6.66058e-119
0.595 	-9.92828e-119
0.5957 	-4.70613e-119
0.5964 	-9.39288e-120
0.5971 	-9.22124e-120
0.5978 	-9.04961e-120
0.5985 	-8.87798e-120
0.5992 	-8.70635e-120
0.5999 	-1.19124e-119
0.6006 	-7.01956e-120
0.6013 	-1.20648e-120
0.602 	-1.18408e-120
0.6027 	-1.16168e-120
0.6034 	-1.13928e-120
0.6041 	-1.11688e-120
0.6048 	-1.39217e-120
0.6055 	-1.01167e-120
0.6062 	-2.09355e-121
0.6069 	-1.49379e-121
0.6076 	-1.4651e-121
0.6083 	-1.4364e-121
0.609 	-1.40771e-121
0.6097 	-1.58423e-121
0.6104 	-1.41933e-121
0.6111 	-4.0464e-122
0.6118 	-1.85308e-122
0.6125 	-1.81696e-122
0.6132 	-1.78085e-122
0.6139 	-1.74473e-122
0.6146 	-1.75345e-122
0.6153 	-1.95647e-122
0.616 	-6.75536e-123
0.6167 	-2.25889e-123
0.6174 	-2.21417e-123
0.6181 	-2.16945e-123
0.6188 	-2.12473e-123
0.6195 	-2.08001e-123
0.6202 	-2.62087e-123
0.6209 	-1.0342e-123
0.6216 	-2.70717e-124
0.6223 	-2.65275e-124
0.623 	-2.59833e-124
0.6237 	-2.54391e-124
0.6244 	-2.48949e-124
0.6251 	-3.42079e-124
0.6258 	-1.49084e-124
0.6265 	-3.19154e-125
0.6272 	-3.12642e-125
0.6279 	-3.06131e-125
0.6286 	-2.9962e-125
0.6293 	-2.93108e-125
0.63 	-4.35915e-125
0.6307 	-2.0524e-125
0.6314 	-3.7027e-126
0.6321 	-3.62604e-126
0.6328 	-3.54939e-126
0.6335 	-3.47273e-126
0.6342 	-3.39608e-126
0.6349 	-4.63413e-126
0.6356 	-2.721e-126
0.6363 	-4.22366e-127
0.637 	-4.13483e-127
0.6377 	-4.04601e-127
0.6384 	-3.95718e-127
0.6391 	-3.86835e-127
0.6398 	-4.80672e-127
0.6405 	-3.4886e-127
0.6412 	-6.74228e-128
0.6419 	-4.63796e-128
0.6426 	-4.53677e-128
0.6433 	-4.43557e-128
0.644 	-4.33438e-128
0.6447 	-4.86037e-128
0.6454 	-4.35459e-128
0.6461 	-1.19602e-128
0.6468 	-5.12734e-129
0.6475 	-5.01397e-129
0.6482 	-4.90061e-129
0.6489 	-4.78725e-129
0.6496 	-4.79187e-129
0.6503 	-5.34674e-129
0.651 	-1.80626e-129
0.6517 	-5.59769e-130
0.6524 	-5.47254e-130
0.6531 	-5.34739e-130
0.6538 	-5.22224e-130
0.6545 	-5.09709e-130
0.6552 	-6.41359e-130
0.6559 	-2.49829e-130
0.6566 	-6.05525e-131
0.6573 	-5.91886e-131
0.658 	-5.78247e-131
0.6587 	-5.64607e-131
0.6594 	-5.50968e-131
0.6601 	-7.55745e-131
0.6608 	-3.26959e-131
0.6615 	-6.51366e-132
0.6622 	-6.36641e-132
0.6629 	-6.21916e-132
0.6636 	-6.07192e-132
0.6643 	-5.92467e-132
0.665 	-8.79315e-132
0.6657 	-4.12494e-132
0.6664 	-7.00124e-133
0.6671 	-6.84322e-133
0.6678 	-6.68521e-133
0.6685 	-6.5272e-133
0.6692 	-6.36918e-133
0.6699 	-8.6722e-133
0.6706 	-5.08578e-133
0.6713 	-7.5819e-134
0.672 	-7.41258e-134
0.6727 	-7.24325e-134
0.6734 	-7.07393e-134
0.6741 	-6.9046e-134
0.6748 	-8.56253e-134
0.6755 	-6.21428e-134
0.6762 	-1.19101e-134
0.6769 	-8.15217e-135
0.6776 	-7.96936e-135
0.6783 	-7.78654e-135
0.679 	-7.60373e-135
0.6797 	-8.51437e-135
0.6804 	-7.62853e-135
0.6811 	-2.10209e-135
0.6818 	-9.06286e-136
0.6825 	-8.86217e-136
0.6832 	-8.66147e-136
0.6839 	-8.46078e-136
0.6846 	-8.46218e-136
0.6853 	-9.44197e-136
0.686 	-3.17953e-136
0.6867 	-9.73362e-137
0.6874 	-9.50966e-137
0.6881 	-9.28571e-137
0.6888 	-9.06176e-137
0.6895 	-8.83781e-137
0.6902 	-1.11115e-136
0.6909 	-4.23637e-137
0.6916 	-8.89158e-138
0.6923 	-8.64803e-138
0.693 	-8.40449e-138
0.6937 	-8.16094e-138
0.6944 	-7.9174e-138
0.6951 	-1.08361e-137
0.6958 	-4.3092e-138
0.6965 	-1.05372e-139
0.6972 	-8.30224e-140
0.6979 	-6.06732e-140
0.6986 	-3.83239e-140
0.6993 	-1.59746e-140
0.7 	-6.94827e-141
