0 	1
0.0007 	1
0.0014 	1
0.0021 	1
0.0028 	1
0.0035 	1
0.0042 	1
0.0049 	1
0.0056 	1
0.0063 	1
0.007 	1
0.0077 	1
0.0084 	1
0.0091 	1
0.0098 	1
0.0105 	1
0.0112 	1
0.0119 	1
0.0126 	1
0.0133 	1
0.014 	1
0.0147 	1
0.0154 	1
0.0161 	1
0.0168 	1
0.0175 	1
0.0182 	1
0.0189 	1
0.0196 	1
0.0203 	1
0.021 	1
0.0217 	1
0.0224 	1
0.0231 	1
0.0238 	1
0.0245 	1
0.0252 	1
0.0259 	1
0.0266 	1
0.0273 	1
0.028 	1
0.0287 	1
0.0294 	1
0.0301 	1
0.0308 	1
0.0315 	1
0.0322 	1
0.0329 	1
0.0336 	1
0.0343 	1
0.035 	1
0.0357 	1
0.0364 	1
0.0371 	1
0.0378 	1
0.0385 	1
0.0392 	1
0.0399 	1
0.0406 	1
0.0413 	1
0.042 	1
0.0427 	1
0.0434 	1
0.0441 	1
0.0448 	1
0.0455 	1
0.0462 	1
0.0469 	1
0.0476 	1
0.0483 	1
0.049 	1
0.0497 	1
0.0504 	1
0.0511 	1
0.0518 	1
0.0525 	1
0.0532 	1
0.0539 	1
0.0546 	1
0.0553 	1
0.056 	1
0.0567 	1
0.0574 	1
0.0581 	1
0.0588 	1
0.0595 	1
0.0602 	1
0.0609 	1
0.0616 	1
0.0623 	1
0.063 	1
0.0637 	1
0.0644 	1
0.0651 	1
0.0658 	1
0.0665 	1
0.0672 	1
0.0679 	1
0.0686 	1
0.0693 	1
0.07 	1
0.0707 	1
0.0714 	1
0.0721 	1
0.0728 	1
0.0735 	1
0.0742 	1
0.0749 	1
0.0756 	1
0.0763 	1
0.077 	1
0.0777 	1
0.0784 	1
0.0791 	1
0.0798 	1
0.0805 	1
0.0812 	1
0.0819 	1
0.0826 	1
0.0833 	1
0.084 	1
0.0847 	1
0.0854 	1
0.0861 	1
0.0868 	1
0.0875 	1
0.0882 	1
0.0889 	1
0.0896 	1
0.0903 	1
0.091 	1
0.0917 	1
0.0924 	1
0.0931 	1
0.0938 	1
0.0945 	1
0.0952 	1
0.0959 	1
0.0966 	1
0.0973 	1
0.098 	1
0.0987 	1
0.0994 	1
0.1001 	1
0.1008 	1
0.1015 	1
0.1022 	1
0.1029 	1
0.1036 	1
0.1043 	1
0.105 	1
0.1057 	1
0.1064 	1
0.1071 	1
0.1078 	1
0.1085 	1
0.1092 	1
0.1099 	1
0.1106 	1
0.1113 	1
0.112 	1
0.1127 	1
0.1134 	1
0.1141 	1
0.1148 	1
0.1155 	1
0.1162 	1
0.1169 	1
0.1176 	1
0.1183 	1
0.119 	1
0.1197 	1
0.1204 	1
0.1211 	1
0.1218 	1
0.1225 	1
0.1232 	1
0.1239 	1
0.1246 	1
0.1253 	1
0.126 	1
0.1267 	1
0.1274 	1
0.1281 	1
0.1288 	1
0.1295 	1
0.1302 	1
0.1309 	1
0.1316 	1
0.1323 	1
0.133 	1
0.1337 	1
0.1344 	1
0.1351 	1
0.1358 	1
0.1365 	1
0.1372 	1
0.1379 	1
0.1386 	1
0.1393 	1
0.14 	1
0.1407 	1
0.1414 	1
0.1421 	1
0.1428 	1
0.1435 	1
0.1442 	1
0.1449 	1
0.1456 	1
0.1463 	1
0.147 	1
0.1477 	1
0.1484 	1
0.1491 	1
0.1498 	1
0.1505 	1
0.1512 	1
0.1519 	1
0.1526 	1
0.1533 	1
0.154 	1
0.1547 	1
0.1554 	1
0.1561 	1
0.1568 	1
0.1575 	1
0.1582 	1
0.1589 	1
0.1596 	1
0.1603 	1
0.161 	1
0.1617 	1
0.1624 	1
0.1631 	1
0.1638 	1
0.1645 	1
0.1652 	1
0.1659 	1
0.1666 	1
0.1673 	1
0.168 	1
0.1687 	1
0.1694 	1
0.1701 	1
0.1708 	1
0.1715 	1
0.1722 	1
0.1729 	1
0.1736 	1
0.1743 	1
0.175 	1
0.1757 	1
0.1764 	1
0.1771 	1
0.1778 	1
0.1785 	1
0.1792 	1
0.1799 	1
0.1806 	1
0.1813 	1
0.182 	1
0.1827 	1
0.1834 	1
0.1841 	1
0.1848 	1
0.1855 	1
0.1862 	1
0.1869 	1
0.1876 	1
0.1883 	1
0.189 	1
0.1897 	1
0.1904 	1
0.1911 	1
0.1918 	1
0.1925 	1
0.1932 	1
0.1939 	1
0.1946 	1
0.1953 	1
0.196 	1
0.1967 	1
0.1974 	1
0.1981 	1
0.1988 	1
0.1995 	1
0.2002 	1
0.2009 	1
0.2016 	1
0.2023 	1
0.203 	1
0.2037 	1
0.2044 	1
0.2051 	1
0.2058 	1
0.2065 	1
0.2072 	1
0.2079 	1
0.2086 	1
0.2093 	1
0.21 	1
0.2107 	1
0.2114 	1
0.2121 	1
0.2128 	1
0.2135 	1
0.2142 	1
0.2149 	1
0.2156 	1
0.2163 	1
0.217 	1
0.2177 	1
0.2184 	1
0.2191 	1
0.2198 	1
0.2205 	1
0.2212 	1
0.2219 	1
0.2226 	1
0.2233 	1
0.224 	1
0.2247 	1
0.2254 	1
0.2261 	1
0.2268 	1
0.2275 	1
0.2282 	1
0.2289 	1
0.2296 	1
0.2303 	1
0.231 	1
0.2317 	1
0.2324 	1
0.2331 	1
0.2338 	1
0.2345 	1
0.2352 	1
0.2359 	1
0.2366 	1
0.2373 	1
0.238 	1
0.2387 	1
0.2394 	1
0.2401 	1
0.2408 	1
0.2415 	1
0.2422 	1
0.2429 	1
0.2436 	1
0.2443 	1
0.245 	1
0.2457 	1
0.2464 	1
0.2471 	1
0.2478 	1
0.2485 	1
0.2492 	0.999999
0.2499 	0.999999
0.2506 	0.999999
0.2513 	0.999998
0.252 	0.999987
0.2527 	0.999962
0.2534 	0.999882
0.2541 	0.999796
0.2548 	0.999704
0.2555 	0.999684
0.2562 	0.999692
0.2569 	0.998758
0.2576 	0.997632
0.2583 	0.994187
0.259 	0.99038
0.2597 	0.985921
0.2604 	0.982969
0.2611 	0.981146
0.2618 	0.968328
0.2625 	0.95251
0.2632 	0.923808
0.2639 	0.890777
0.2646 	0.846753
0.2653 	0.806366
0.266 	0.770828
0.2667 	0.722429
0.2674 	0.666884
0.2681 	0.606568
0.2688 	0.543345
0.2695 	0.461545
0.2702 	0.379432
0.2709 	0.296535
0.2716 	0.228295
0.2723 	0.174712
0.273 	0.129743
0.2737 	0.09004
0.2744 	0.0775545
0.2751 	0.0660945
0.2758 	0.0482244
0.2765 	0.0319437
0.2772 	0.0185239
0.2779 	0.00924544
0.2786 	0.00449512
0.2793 	0.00323948
0.28 	0.00293695
0.2807 	0.00218675
0.2814 	0.0014717
0.2821 	0.000885524
0.2828 	0.000434054
0.2835 	0.000250255
0.2842 	0.000171806
0.2849 	0.000151887
0.2856 	0.000116513
0.2863 	7.92189e-05
0.287 	5.04538e-05
0.2877 	2.52545e-05
0.2884 	1.50754e-05
0.2891 	9.48537e-06
0.2898 	8.48453e-06
0.2905 	6.67735e-06
0.2912 	4.54764e-06
0.2919 	2.87515e-06
0.2926 	1.29189e-06
0.2933 	7.59379e-07
0.294 	4.02638e-07
0.2947 	3.62283e-07
0.2954 	2.91667e-07
0.2961 	1.98355e-07
0.2968 	1.21824e-07
0.2975 	4.98701e-08
0.2982 	2.34193e-08
0.2989 	6.2644e-09
0.2996 	5.8824e-09
0.3003 	4.99783e-09
0.301 	3.44317e-09
0.3017 	2.07707e-09
0.3024 	8.15738e-10
0.3031 	2.93424e-10
0.3038 	2.15028e-11
0.3045 	2.146e-11
0.3052 	2.03263e-11
0.3059 	1.6465e-11
0.3066 	1.30077e-11
0.3073 	9.95427e-12
0.308 	8.61322e-12
0.3087 	8.32115e-12
0.3094 	8.77773e-12
0.3101 	9.28571e-12
0.3108 	9.75648e-12
0.3115 	1.0116e-11
0.3122 	1.02753e-11
0.3129 	1.03494e-11
0.3136 	1.03304e-11
0.3143 	1.00677e-11
0.315 	9.73848e-12
0.3157 	9.46741e-12
0.3164 	9.16666e-12
0.3171 	8.75707e-12
0.3178 	8.31765e-12
0.3185 	7.81881e-12
0.3192 	7.23034e-12
0.3199 	6.59208e-12
0.3206 	5.97163e-12
0.3213 	5.3611e-12
0.322 	4.84099e-12
0.3227 	4.3338e-12
0.3234 	3.8812e-12
0.3241 	3.47666e-12
0.3248 	3.12017e-12
0.3255 	2.74835e-12
0.3262 	2.3704e-12
0.3269 	2.06134e-12
0.3276 	1.76118e-12
0.3283 	1.53191e-12
0.329 	1.32884e-12
0.3297 	1.17295e-12
0.3304 	1.00702e-12
0.3311 	8.33571e-13
0.3318 	6.92561e-13
0.3325 	5.60397e-13
0.3332 	4.66266e-13
0.3339 	3.84882e-13
0.3346 	3.35657e-13
0.3353 	2.82825e-13
0.336 	2.25184e-13
0.3367 	1.77422e-13
0.3374 	1.35148e-13
0.3381 	1.05283e-13
0.3388 	8.03734e-14
0.3395 	6.96255e-14
0.3402 	5.81504e-14
0.3409 	4.48572e-14
0.3416 	3.34489e-14
0.3423 	2.39256e-14
0.343 	1.70241e-14
0.3437 	1.17334e-14
0.3444 	9.91758e-15
0.3451 	8.29929e-15
0.3458 	6.26259e-15
0.3465 	4.43759e-15
0.3472 	2.99364e-15
0.3479 	1.89186e-15
0.3486 	1.16603e-15
0.3493 	9.02473e-16
0.35 	7.64991e-16
0.3507 	5.69501e-16
0.3514 	3.86157e-16
0.3521 	2.47351e-16
0.3528 	1.3397e-16
0.3535 	7.14029e-17
0.3542 	4.49862e-17
0.3549 	3.86529e-17
0.3556 	2.9056e-17
0.3563 	1.91162e-17
0.357 	1.17895e-17
0.3577 	5.30726e-18
0.3584 	2.41301e-18
0.3591 	9.13011e-19
0.3598 	8.0729e-19
0.3605 	6.24572e-19
0.3612 	4.11054e-19
0.3619 	2.46753e-19
0.3626 	9.13619e-20
0.3633 	3.86556e-20
0.364 	4.65343e-21
0.3647 	4.31898e-21
0.3654 	3.51738e-21
0.3661 	2.36541e-21
0.3668 	1.39841e-21
0.3675 	4.81844e-22
0.3682 	1.85266e-22
0.3689 	3.63844e-24
0.3696 	3.61234e-24
0.3703 	3.17263e-24
0.371 	2.18142e-24
0.3717 	1.28938e-24
0.3724 	4.52443e-25
0.3731 	1.39076e-25
0.3738 	3.13747e-28
0.3745 	3.32746e-28
0.3752 	3.19087e-28
0.3759 	2.23785e-28
0.3766 	1.34256e-28
0.3773 	5.04984e-29
0.378 	1.17684e-29
0.3787 	8.03938e-31
0.3794 	2.15863e-32
0.3801 	2.14868e-32
0.3808 	1.5331e-32
0.3815 	9.45863e-33
0.3822 	4.09653e-33
0.3829 	9.2339e-34
0.3836 	1.64107e-34
0.3843 	1.44305e-36
0.385 	1.495e-36
0.3857 	1.08358e-36
0.3864 	6.83733e-37
0.3871 	3.26335e-37
0.3878 	7.05344e-38
0.3885 	1.86291e-38
0.3892 	9.3404e-41
0.3899 	9.65809e-41
0.3906 	7.4151e-41
0.3913 	4.77037e-41
0.392 	2.45133e-41
0.3927 	5.07795e-42
0.3934 	1.69647e-42
0.3941 	5.82965e-45
0.3948 	6.03929e-45
0.3955 	4.9009e-45
0.3962 	3.22329e-45
0.3969 	1.74745e-45
0.3976 	3.45338e-46
0.3983 	1.35343e-46
0.399 	3.50733e-49
0.3997 	3.6491e-49
0.4004 	3.12695e-49
0.4011 	2.10688e-49
0.4018 	1.1883e-49
0.4025 	2.97398e-50
0.4032 	9.8467e-51
0.4039 	2.04375e-53
0.4046 	2.13764e-53
0.4053 	1.93315e-53
0.406 	1.33082e-53
0.4067 	7.76304e-54
0.4074 	2.48351e-54
0.4081 	6.70785e-55
0.4088 	1.16172e-57
0.4095 	1.22147e-57
0.4102 	1.1649e-57
0.4109 	8.17513e-58
0.4116 	4.91077e-58
0.4123 	1.85587e-58
0.413 	4.36318e-59
0.4137 	2.96968e-60
0.4144 	6.85658e-62
0.4151 	6.88892e-62
0.4158 	4.91909e-62
0.4165 	3.03232e-62
0.4172 	1.2951e-62
0.4179 	2.74898e-63
0.4186 	4.88109e-64
0.4193 	3.80402e-66
0.42 	4.02156e-66
0.4207 	2.91702e-66
0.4214 	1.83995e-66
0.4221 	8.6355e-67
0.4228 	1.69458e-67
0.4235 	4.47429e-68
0.4242 	2.09503e-70
0.4249 	2.22124e-70
0.4256 	1.71254e-70
0.4263 	1.10298e-70
0.427 	5.58011e-71
0.4277 	1.0283e-71
0.4284 	3.43477e-72
0.4291 	-3.37175e-74
0.4298 	-1.22481e-73
0.4305 	-8.63664e-74
0.4312 	-3.01293e-76
0.4319 	3.01897e-75
0.4326 	9.51952e-77
0.4333 	-2.82644e-76
0.434 	-3.59347e-74
0.4347 	-1.35081e-73
0.4354 	-1.20919e-73
0.4361 	-2.17765e-74
0.4368 	-5.30091e-76
0.4375 	-5.28331e-76
0.4382 	-5.26579e-76
0.4389 	-2.00269e-74
0.4396 	-1.11036e-73
0.4403 	-1.24031e-73
0.441 	-3.30095e-74
0.4417 	-4.89979e-76
0.4424 	-4.71916e-76
0.4431 	-4.6364e-76
0.4438 	-5.90748e-75
0.4445 	-8.21902e-74
0.4452 	-1.14877e-73
0.4459 	-3.85747e-74
0.4466 	-4.11478e-76
0.4473 	-3.87641e-76
0.448 	-3.74715e-76
0.4487 	-3.68581e-76
0.4494 	-5.58131e-74
0.4501 	-9.84604e-74
0.4508 	-3.87303e-74
0.4515 	-3.23818e-76
0.4522 	-3.00264e-76
0.4529 	-2.85148e-76
0.4536 	-2.79422e-76
0.4543 	-3.49771e-74
0.455 	-7.91393e-74
0.4557 	-3.49596e-74
0.4564 	-2.42416e-76
0.4571 	-2.2191e-76
0.4578 	-2.06602e-76
0.4585 	-2.01836e-76
0.4592 	-2.01571e-74
0.4599 	-5.12013e-74
0.4606 	-2.90149e-74
0.4613 	-1.7387e-76
0.462 	-1.57349e-76
0.4627 	-1.43233e-76
0.4634 	-1.3956e-76
0.4641 	-1.05416e-74
0.4648 	-3.13493e-74
0.4655 	-2.24242e-74
0.4662 	-1.60602e-75
0.4669 	-1.07315e-76
0.4676 	-9.51989e-77
0.4683 	-9.25362e-77
0.469 	-4.84968e-75
0.4697 	-1.81745e-74
0.4704 	-1.62667e-74
0.4711 	-2.93451e-75
0.4718 	-7.04698e-77
0.4725 	-6.14167e-77
0.4732 	-5.8873e-77
0.4739 	-1.80701e-75
0.4746 	-9.97174e-75
0.4753 	-1.1136e-74
0.476 	-2.96632e-75
0.4767 	-4.45729e-77
0.4774 	-3.83669e-77
0.4781 	-3.59594e-77
0.4788 	-3.7721e-76
0.4795 	-5.17034e-75
0.4802 	-7.22364e-75
0.4809 	-2.42734e-75
0.4816 	-2.71678e-77
0.4823 	-2.3123e-77
0.483 	-2.11078e-77
0.4837 	-2.03636e-77
0.4844 	-2.52665e-75
0.4851 	-4.45433e-75
0.4858 	-1.75327e-75
0.4865 	-1.5969e-77
0.4872 	-1.34587e-77
0.4879 	-1.19238e-77
0.4886 	-1.14806e-77
0.4893 	-1.15834e-75
0.49 	-2.61811e-75
0.4907 	-1.15722e-75
0.4914 	-9.06117e-78
0.4921 	-7.57277e-78
0.4928 	-6.49063e-78
0.4935 	-6.23787e-78
0.4942 	-4.94123e-76
0.4949 	-1.2532e-75
0.4956 	-7.10465e-76
0.4963 	-4.96824e-78
0.497 	-4.12224e-78
0.4977 	-3.40768e-78
0.4984 	-3.26936e-78
0.4991 	-1.93147e-76
0.4998 	-5.7304e-76
0.5005 	-4.09989e-76
0.5012 	-2.97607e-77
0.5019 	-2.17202e-78
0.5026 	-1.72656e-78
0.5033 	-1.65386e-78
0.504 	-6.70179e-77
0.5047 	-2.50169e-76
0.5054 	-2.23906e-76
0.5061 	-4.05827e-77
0.5068 	-1.1081e-78
0.5075 	-8.65296e-79
0.5082 	-8.0785e-79
0.5089 	-1.90215e-77
0.5096 	-1.04154e-76
0.5103 	-1.16279e-76
0.511 	-3.10615e-77
0.5117 	-5.47496e-79
0.5124 	-4.2466e-79
0.5131 	-3.81221e-79
0.5138 	-3.09216e-78
0.5145 	-4.12784e-77
0.5152 	-5.76323e-77
0.5159 	-1.94054e-77
0.5166 	-2.6205e-79
0.5173 	-2.02192e-79
0.518 	-1.73909e-79
0.5187 	-1.65525e-79
0.5194 	-1.55287e-77
0.5201 	-2.73443e-77
0.5208 	-1.07801e-77
0.5215 	-1.21544e-79
0.5222 	-9.34289e-80
0.5229 	-7.67538e-80
0.5236 	-7.29622e-80
0.5243 	-5.51917e-78
0.525 	-1.24517e-77
0.5257 	-5.51091e-78
0.5264 	-5.46506e-80
0.5271 	-4.19116e-80
0.5278 	-3.27995e-80
0.5285 	-3.11434e-80
0.5292 	-1.83848e-78
0.5299 	-4.65081e-78
0.5306 	-2.63897e-78
0.5313 	-2.38318e-80
0.532 	-1.82583e-80
0.5327 	-1.35824e-80
0.5334 	-1.2883e-80
0.5341 	-5.6554e-79
0.5348 	-1.67155e-78
0.5355 	-1.1965e-78
0.5362 	-8.90226e-80
0.5369 	-7.72659e-81
0.5376 	-5.45406e-81
0.5383 	-5.16828e-81
0.539 	-1.55763e-79
0.5397 	-5.77943e-79
0.5404 	-5.17296e-79
0.5411 	-9.45293e-80
0.5418 	-3.17746e-81
0.5425 	-2.21208e-81
0.5432 	-2.01207e-81
0.5439 	-3.54727e-80
0.5446 	-1.92038e-79
0.5453 	-2.14307e-79
0.546 	-5.7514e-80
0.5467 	-1.27029e-81
0.5474 	-8.87243e-82
0.5481 	-7.60646e-82
0.5488 	-4.75248e-81
0.5495 	-6.1202e-80
0.5502 	-8.53703e-80
0.5509 	-2.88352e-80
0.5516 	-4.93861e-82
0.5523 	-3.46482e-82
0.553 	-2.79418e-82
0.5537 	-2.63317e-82
0.5544 	-1.86478e-80
0.5551 	-3.27862e-80
0.5558 	-1.2955e-80
0.5565 	-1.86773e-82
0.5572 	-1.3176e-82
0.5579 	-9.98088e-83
0.5586 	-9.40007e-83
0.5593 	-5.40596e-81
0.56 	-1.21682e-80
0.5607 	-5.39491e-81
0.5614 	-6.87389e-83
0.5621 	-4.87976e-83
0.5628 	-3.46864e-83
0.5635 	-3.26511e-83
0.5642 	-1.4788e-81
0.5649 	-3.72949e-81
0.5656 	-2.1186e-81
0.5663 	-2.46312e-83
0.567 	-1.76053e-83
0.5677 	-1.17351e-83
0.5684 	-1.10421e-83
0.5691 	-3.75941e-82
0.5698 	-1.10643e-81
0.5705 	-7.92457e-82
0.5712 	-6.0695e-83
0.5719 	-6.18982e-84
0.5726 	-3.86777e-84
0.5733 	-3.63832e-84
0.574 	-8.60968e-83
0.5747 	-3.17394e-82
0.5754 	-2.84115e-82
0.5761 	-5.24047e-83
0.5768 	-2.12143e-84
0.5775 	-1.31853e-84
0.5782 	-1.16894e-84
0.5789 	-1.64326e-83
0.5796 	-8.79347e-83
0.5803 	-9.80931e-83
0.581 	-2.646e-83
0.5817 	-7.09064e-85
0.5824 	-4.48364e-85
0.5831 	-3.66505e-85
0.5838 	-1.88791e-84
0.5845 	-2.34902e-83
0.5852 	-3.27367e-83
0.5859 	-1.10939e-83
0.5866 	-2.31277e-85
0.5873 	-1.48746e-85
0.588 	-1.12218e-85
0.5887 	-1.0509e-85
0.5894 	-6.03149e-84
0.5901 	-1.05889e-83
0.5908 	-4.19387e-84
0.5915 	-7.36607e-86
0.5922 	-4.81634e-86
0.5929 	-3.35772e-86
0.5936 	-3.14454e-86
0.5943 	-1.48095e-84
0.595 	-3.32636e-84
0.5957 	-1.47736e-84
0.5964 	-2.2919e-86
0.5971 	-1.52274e-86
0.5978 	-9.82513e-87
0.5985 	-9.20222e-87
0.5992 	-3.44813e-85
0.5999 	-8.67221e-85
0.6006 	-4.93186e-85
0.6013 	-6.97022e-87
0.602 	-4.70301e-87
0.6027 	-2.81347e-87
0.6034 	-2.63553e-87
0.6041 	-7.49991e-86
0.6048 	-2.19904e-85
0.6055 	-1.57594e-85
0.6062 	-1.2398e-86
0.6069 	-1.41979e-87
0.6076 	-7.88916e-88
0.6083 	-7.39193e-88
0.609 	-1.4781e-86
0.6097 	-5.41878e-86
0.6104 	-4.85125e-86
0.6111 	-9.0256e-87
0.6118 	-4.19196e-88
0.6125 	-2.34764e-88
0.6132 	-2.0315e-88
0.6139 	-2.44498e-87
0.6146 	-1.29567e-86
0.6153 	-1.44491e-86
0.616 	-3.91579e-87
0.6167 	-1.21109e-88
0.6174 	-7.01432e-89
0.6181 	-5.47372e-89
0.6188 	-2.47904e-88
0.6195 	-2.99964e-87
0.6202 	-4.17732e-87
0.6209 	-1.41988e-87
0.6216 	-3.42554e-89
0.6223 	-2.04538e-89
0.623 	-1.44662e-89
0.6237 	-1.3509e-89
0.6244 	-6.70145e-88
0.6251 	-1.17509e-87
0.6258 	-4.66392e-88
0.6265 	-9.49055e-90
0.6272 	-5.82585e-90
0.6279 	-3.75148e-90
0.6286 	-3.50501e-90
0.6293 	-1.43711e-88
0.63 	-3.22222e-88
0.6307 	-1.43335e-88
0.6314 	-2.57668e-90
0.6321 	-1.6221e-90
0.6328 	-9.5499e-91
0.6335 	-8.92733e-91
0.6342 	-2.9326e-89
0.6349 	-7.35902e-89
0.6356 	-4.18927e-89
0.6363 	-6.85828e-91
0.637 	-4.41822e-91
0.6377 	-2.38741e-91
0.6384 	-2.23307e-91
0.6391 	-5.60833e-90
0.6398 	-1.63938e-89
0.6405 	-1.17551e-89
0.6412 	-9.46698e-91
0.6419 	-1.17804e-91
0.6426 	-5.86377e-92
0.6433 	-5.48803e-92
0.644 	-9.75061e-91
0.6447 	-3.55833e-90
0.6454 	-3.18615e-90
0.6461 	-5.97367e-91
0.6468 	-3.07687e-92
0.6475 	-1.56763e-92
0.6482 	-1.32569e-92
0.6489 	-1.42921e-91
0.6496 	-7.51316e-91
0.6503 	-8.37672e-91
0.651 	-2.27976e-91
0.6517 	-7.87698e-93
0.6524 	-4.22164e-93
0.6531 	-3.14858e-93
0.6538 	-1.30184e-92
0.6545 	-1.53943e-91
0.6552 	-2.14254e-91
0.6559 	-7.30263e-92
0.6566 	-1.97754e-93
0.6573 	-1.10725e-93
0.658 	-7.3533e-94
0.6587 	-6.86492e-94
0.6594 	-3.04964e-92
0.6601 	-5.34199e-92
0.6608 	-2.12442e-92
0.6615 	-4.87005e-94
0.6622 	-2.83281e-94
0.6629 	-1.68863e-94
0.6636 	-1.57762e-94
0.6643 	-5.80792e-93
0.665 	-1.30021e-92
0.6657 	-5.79243e-93
0.6664 	-1.17669e-94
0.6671 	-7.07789e-95
0.6678 	-3.8125e-95
0.6685 	-3.56444e-95
0.6692 	-1.05371e-93
0.6699 	-2.63875e-93
0.6706 	-1.50365e-93
0.6713 	-2.78949e-95
0.672 	-1.7284e-95
0.6727 	-8.46003e-96
0.6734 	-7.91505e-96
0.6741 	-1.7925e-94
0.6748 	-5.22465e-94
0.6755 	-3.74843e-94
0.6762 	-3.08865e-95
0.6769 	-4.12601e-96
0.6776 	-1.84265e-96
0.6783 	-1.72495e-96
0.679 	-2.7693e-95
0.6797 	-1.00615e-94
0.6804 	-9.01076e-95
0.6811 	-1.7027e-95
0.6818 	-9.61158e-97
0.6825 	-4.44825e-97
0.6832 	-3.66508e-97
0.6839 	-3.58117e-96
0.6846 	-1.86746e-95
0.6853 	-2.08166e-95
0.686 	-5.69004e-96
0.6867 	-2.1647e-97
0.6874 	-1.05669e-97
0.6881 	-7.39024e-98
0.6888 	-2.80001e-97
0.6895 	-3.23306e-96
0.6902 	-4.49672e-96
0.6909 	-1.5369e-96
0.6916 	-4.55224e-98
0.6923 	-2.25921e-98
0.693 	-1.29123e-98
0.6937 	-1.18656e-98
0.6944 	-4.6969e-97
0.6951 	-8.21738e-97
0.6958 	-3.27349e-97
0.6965 	-8.05572e-99
0.6972 	-3.93735e-99
0.6979 	-1.63923e-99
0.6986 	-1.45593e-99
0.6993 	-1.30599e-99
0.7 	-1.16516e-99
