0 	1
0.0007 	1
0.0014 	1
0.0021 	1
0.0028 	1
0.0035 	1
0.0042 	1
0.0049 	1
0.0056 	1
0.0063 	1
0.007 	1
0.0077 	1
0.0084 	1
0.0091 	1
0.0098 	1
0.0105 	1
0.0112 	1
0.0119 	1
0.0126 	1
0.0133 	1
0.014 	1
0.0147 	1
0.0154 	1
0.0161 	1
0.0168 	1
0.0175 	1
0.0182 	1
0.0189 	1
0.0196 	1
0.0203 	1
0.021 	1
0.0217 	1
0.0224 	1
0.0231 	1
0.0238 	1
0.0245 	1
0.0252 	1
0.0259 	1
0.0266 	1
0.0273 	1
0.028 	1
0.0287 	1
0.0294 	1
0.0301 	1
0.0308 	1
0.0315 	1
0.0322 	1
0.0329 	1
0.0336 	1
0.0343 	1
0.035 	1
0.0357 	1
0.0364 	1
0.0371 	1
0.0378 	1
0.0385 	1
0.0392 	1
0.0399 	1
0.0406 	1
0.0413 	1
0.042 	1
0.0427 	1
0.0434 	1
0.0441 	1
0.0448 	1
0.0455 	1
0.0462 	1
0.0469 	1
0.0476 	1
0.0483 	1
0.049 	1
0.0497 	1
0.0504 	1
0.0511 	1
0.0518 	1
0.0525 	1
0.0532 	1
0.0539 	1
0.0546 	1
0.0553 	1
0.056 	1
0.0567 	1
0.0574 	1
0.0581 	1
0.0588 	1
0.0595 	1
0.0602 	1
0.0609 	1
0.0616 	1
0.0623 	1
0.063 	1
0.0637 	1
0.0644 	1
0.0651 	1
0.0658 	1
0.0665 	1
0.0672 	1
0.0679 	1
0.0686 	1
0.0693 	1
0.07 	1
0.0707 	1
0.0714 	1
0.0721 	1
0.0728 	1
0.0735 	1
0.0742 	1
0.0749 	1
0.0756 	1
0.0763 	1
0.077 	1
0.0777 	1
0.0784 	1
0.0791 	1
0.0798 	1
0.0805 	1
0.0812 	1
0.0819 	1
0.0826 	1
0.0833 	1
0.084 	1
0.0847 	1
0.0854 	1
0.0861 	1
0.0868 	1
0.0875 	1
0.0882 	1
0.0889 	1
0.0896 	1
0.0903 	1
0.091 	1
0.0917 	1
0.0924 	1
0.0931 	1
0.0938 	1
0.0945 	1
0.0952 	1
0.0959 	1
0.0966 	1
0.0973 	1
0.098 	1
0.0987 	1
0.0994 	1
0.1001 	1
0.1008 	1
0.1015 	1
0.1022 	1
0.1029 	1
0.1036 	1
0.1043 	1
0.105 	1
0.1057 	1
0.1064 	1
0.1071 	1
0.1078 	1
0.1085 	1
0.1092 	1
0.1099 	1
0.1106 	1
0.1113 	1
0.112 	1
0.1127 	1
0.1134 	1
0.1141 	1
0.1148 	1
0.1155 	1
0.1162 	1
0.1169 	1
0.1176 	1
0.1183 	1
0.119 	1
0.1197 	1
0.1204 	1
0.1211 	1
0.1218 	1
0.1225 	1
0.1232 	1
0.1239 	1
0.1246 	1
0.1253 	1
0.126 	1
0.1267 	1
0.1274 	1
0.1281 	1
0.1288 	1
0.1295 	1
0.1302 	1
0.1309 	1
0.1316 	1
0.1323 	1
0.133 	1
0.1337 	1
0.1344 	1
0.1351 	1
0.1358 	1
0.1365 	1
0.1372 	1
0.1379 	1
0.1386 	1
0.1393 	1
0.14 	1
0.1407 	1
0.1414 	1
0.1421 	1
0.1428 	1
0.1435 	1
0.1442 	1
0.1449 	1
0.1456 	1
0.1463 	1
0.147 	1
0.1477 	1
0.1484 	1
0.1491 	1
0.1498 	1
0.1505 	1
0.1512 	1
0.1519 	1
0.1526 	1
0.1533 	1
0.154 	1
0.1547 	1
0.1554 	1
0.1561 	1
0.1568 	1
0.1575 	1
0.1582 	1
0.1589 	1
0.1596 	1
0.1603 	1
0.161 	1
0.1617 	1
0.1624 	1
0.1631 	1
0.1638 	1
0.1645 	1
0.1652 	1
0.1659 	1
0.1666 	1
0.1673 	1
0.168 	1
0.1687 	1
0.1694 	1
0.1701 	1
0.1708 	1
0.1715 	1
0.1722 	1
0.1729 	1
0.1736 	1
0.1743 	1
0.175 	1
0.1757 	1
0.1764 	1
0.1771 	1
0.1778 	1
0.1785 	1
0.1792 	1
0.1799 	1
0.1806 	1
0.1813 	1
0.182 	1
0.1827 	1
0.1834 	1
0.1841 	1
0.1848 	1
0.1855 	1
0.1862 	1
0.1869 	1
0.1876 	1
0.1883 	1
0.189 	1
0.1897 	1
0.1904 	1
0.1911 	1
0.1918 	1
0.1925 	1
0.1932 	1
0.1939 	1
0.1946 	1
0.1953 	1
0.196 	1
0.1967 	1
0.1974 	1
0.1981 	1
0.1988 	1
0.1995 	1
0.2002 	1
0.2009 	1
0.2016 	1
0.2023 	1
0.203 	1
0.2037 	1
0.2044 	1
0.2051 	1
0.2058 	1
0.2065 	1
0.2072 	1
0.2079 	1
0.2086 	1
0.2093 	1
0.21 	1
0.2107 	1
0.2114 	1
0.2121 	1
0.2128 	1
0.2135 	1
0.2142 	1
0.2149 	1
0.2156 	1
0.2163 	1
0.217 	1
0.2177 	1
0.2184 	1
0.2191 	1
0.2198 	1
0.2205 	1
0.2212 	1
0.2219 	1
0.2226 	1
0.2233 	1
0.224 	1
0.2247 	1
0.2254 	1
0.2261 	1
0.2268 	1
0.2275 	1
0.2282 	1
0.2289 	1
0.2296 	1
0.2303 	1
0.231 	1
0.2317 	1
0.2324 	1
0.2331 	1
0.2338 	1
0.2345 	1
0.2352 	1
0.2359 	1
0.2366 	1
0.2373 	1
0.238 	1
0.2387 	1
0.2394 	1
0.2401 	1
0.2408 	1
0.2415 	0.999997
0.2422 	0.999994
0.2429 	0.999991
0.2436 	0.999987
0.2443 	0.999962
0.245 	0.999901
0.2457 	0.999936
0.2464 	0.99965
0.2471 	0.999171
0.2478 	0.998691
0.2485 	0.998212
0.2492 	0.997039
0.2499 	0.993578
0.2506 	0.99306
0.2513 	0.988126
0.252 	0.977912
0.2527 	0.967698
0.2534 	0.957485
0.2541 	0.9448
0.2548 	0.907035
0.2555 	0.879223
0.2562 	0.847424
0.2569 	0.800068
0.2576 	0.752712
0.2583 	0.705356
0.259 	0.658
0.2597 	0.575776
0.2604 	0.48938
0.2611 	0.407178
0.2618 	0.349024
0.2625 	0.29087
0.2632 	0.232717
0.2639 	0.174563
0.2646 	0.153379
0.2653 	0.134156
0.266 	0.105884
0.2667 	0.0837868
0.2674 	0.0616915
0.2681 	0.0395963
0.2688 	0.017501
0.2695 	0.0101072
0.2702 	0.00965965
0.2709 	0.00775934
0.2716 	0.00610813
0.2723 	0.00448183
0.273 	0.00285554
0.2737 	0.00122924
0.2744 	0.000445139
0.2751 	0.000431292
0.2758 	0.000348304
0.2765 	0.000275625
0.2772 	0.000206087
0.2779 	0.000136549
0.2786 	6.70109e-05
0.2793 	2.36085e-05
0.28 	2.36111e-05
0.2807 	1.91739e-05
0.2814 	1.51724e-05
0.2821 	1.14337e-05
0.2828 	7.69496e-06
0.2835 	3.95625e-06
0.2842 	1.09003e-06
0.2849 	1.09485e-06
0.2856 	9.16703e-07
0.2863 	7.22558e-07
0.287 	5.44064e-07
0.2877 	3.65569e-07
0.2884 	1.87074e-07
0.2891 	2.45733e-08
0.2898 	2.32039e-08
0.2905 	1.95111e-08
0.2912 	1.51943e-08
0.2919 	1.14764e-08
0.2926 	7.75863e-09
0.2933 	4.04084e-09
0.294 	3.23047e-10
0.2947 	1.01769e-10
0.2954 	7.78645e-11
0.2961 	5.85823e-11
0.2968 	4.67499e-11
0.2975 	3.49203e-11
0.2982 	2.30906e-11
0.2989 	1.1261e-11
0.2996 	9.24067e-12
0.3003 	9.62783e-12
0.301 	1.00297e-11
0.3017 	1.00287e-11
0.3024 	1.00273e-11
0.3031 	1.00259e-11
0.3038 	1.00245e-11
0.3045 	9.70421e-12
0.3052 	9.24195e-12
0.3059 	8.83163e-12
0.3066 	8.38231e-12
0.3073 	7.92903e-12
0.308 	7.47575e-12
0.3087 	7.02246e-12
0.3094 	6.53362e-12
0.3101 	6.01387e-12
0.3108 	5.5062e-12
0.3115 	5.08065e-12
0.3122 	4.68032e-12
0.3129 	4.28e-12
0.3136 	3.87968e-12
0.3143 	3.51906e-12
0.315 	3.2242e-12
0.3157 	2.9262e-12
0.3164 	2.65969e-12
0.3171 	2.41249e-12
0.3178 	2.16529e-12
0.3185 	1.9181e-12
0.3192 	1.69491e-12
0.3199 	1.55042e-12
0.3206 	1.38748e-12
0.3213 	1.23763e-12
0.322 	1.10558e-12
0.3227 	9.73535e-13
0.3234 	8.41489e-13
0.3241 	7.16256e-13
0.3248 	6.5912e-13
0.3255 	5.85939e-13
0.3262 	5.12209e-13
0.3269 	4.50214e-13
0.3276 	3.88237e-13
0.3283 	3.26259e-13
0.329 	2.64281e-13
0.3297 	2.44572e-13
0.3304 	2.17702e-13
0.3311 	1.85252e-13
0.3318 	1.59198e-13
0.3325 	1.33169e-13
0.3332 	1.07139e-13
0.3339 	8.11096e-14
0.3346 	7.34149e-14
0.3353 	6.65141e-14
0.336 	5.49028e-14
0.3367 	4.58262e-14
0.3374 	3.67644e-14
0.3381 	2.77026e-14
0.3388 	1.86408e-14
0.3395 	1.55386e-14
0.3402 	1.46952e-14
0.3409 	1.19143e-14
0.3416 	9.62289e-15
0.3423 	7.38534e-15
0.343 	5.14779e-15
0.3437 	2.91024e-15
0.3444 	1.88525e-15
0.3451 	1.91466e-15
0.3458 	1.55202e-15
0.3465 	1.22628e-15
0.3472 	9.12592e-16
0.3479 	5.989e-16
0.3486 	2.85208e-16
0.3493 	9.38347e-17
0.35 	1.04474e-16
0.3507 	8.55294e-17
0.3514 	6.73956e-17
0.3521 	4.98014e-17
0.3528 	3.22072e-17
0.3535 	1.4613e-17
0.3542 	1.17745e-18
0.3549 	1.32671e-18
0.3556 	1.13894e-18
0.3563 	9.04812e-19
0.357 	6.82017e-19
0.3577 	4.59223e-19
0.3584 	2.36428e-19
0.3591 	3.36468e-20
0.3598 	2.92868e-20
0.3605 	2.36991e-20
0.3612 	1.86571e-20
0.3619 	1.56538e-20
0.3626 	1.26503e-20
0.3633 	9.64691e-21
0.364 	6.64348e-21
0.3647 	5.56365e-21
0.3654 	4.50914e-21
0.3661 	3.51995e-21
0.3668 	3.04512e-21
0.3675 	2.56992e-21
0.3682 	2.09473e-21
0.3689 	1.61954e-21
0.3696 	1.32223e-21
0.3703 	1.07887e-21
0.371 	8.55972e-22
0.3717 	7.36997e-22
0.3724 	6.17784e-22
0.3731 	4.98572e-22
0.3738 	3.79359e-22
0.3745 	3.08679e-22
0.3752 	2.6288e-22
0.3759 	2.1771e-22
0.3766 	1.85554e-22
0.3773 	1.54632e-22
0.378 	1.23711e-22
0.3787 	9.27901e-23
0.3794 	7.37578e-23
0.3801 	6.52634e-23
0.3808 	5.43047e-23
0.3815 	4.52349e-23
0.3822 	3.67235e-23
0.3829 	2.82122e-23
0.3836 	1.97009e-23
0.3843 	1.39362e-23
0.385 	1.26945e-23
0.3857 	1.0363e-23
0.3864 	8.34326e-24
0.3871 	6.5091e-24
0.3878 	4.67494e-24
0.3885 	2.84078e-24
0.3892 	1.41403e-24
0.3899 	1.31296e-24
0.3906 	1.07982e-24
0.3913 	8.5008e-25
0.392 	6.47787e-25
0.3927 	4.45493e-25
0.3934 	2.432e-25
0.3941 	5.91443e-26
0.3948 	5.4408e-26
0.3955 	4.51997e-26
0.3962 	3.505e-26
0.3969 	2.65961e-26
0.3976 	1.81439e-26
0.3983 	9.69174e-27
0.399 	1.23959e-27
0.3997 	7.19704e-28
0.4004 	5.91245e-28
0.4011 	4.48876e-28
0.4018 	3.4243e-28
0.4025 	2.3606e-28
0.4032 	1.29691e-28
0.4039 	2.33207e-29
0.4046 	2.40552e-30
0.4053 	1.92278e-30
0.406 	1.40945e-30
0.4067 	1.08452e-30
0.4074 	7.59951e-31
0.4081 	4.35381e-31
0.4088 	1.1081e-31
0.4095 	1.55897e-33
0.4102 	1.21695e-33
0.4109 	8.15561e-34
0.4116 	6.17857e-34
0.4123 	4.40453e-34
0.413 	2.63048e-34
0.4137 	8.56435e-35
0.4144 	7.78854e-37
0.4151 	8.12096e-37
0.4158 	3.51274e-37
0.4165 	2.03854e-37
0.4172 	1.5174e-37
0.4179 	9.96273e-38
0.4186 	4.75142e-38
0.4193 	3.32829e-38
0.42 	8.1244e-38
0.4207 	3.31082e-38
0.4214 	1.48748e-38
0.4221 	1.4857e-38
0.4228 	1.48393e-38
0.4235 	1.48215e-38
0.4242 	2.61494e-38
0.4249 	7.42511e-38
0.4256 	3.99497e-38
0.4263 	1.48276e-38
0.427 	1.46792e-38
0.4277 	1.45308e-38
0.4284 	1.43824e-38
0.4291 	1.79166e-38
0.4298 	5.73542e-38
0.4305 	3.96431e-38
0.4312 	1.25463e-38
0.4319 	1.21269e-38
0.4326 	1.1707e-38
0.4333 	1.1287e-38
0.434 	1.0867e-38
0.4347 	3.20366e-38
0.4354 	2.77229e-38
0.4361 	8.0313e-39
0.4368 	7.54433e-39
0.4375 	7.05484e-39
0.4382 	6.56535e-39
0.4389 	6.07586e-39
0.4396 	1.2826e-38
0.4403 	1.33276e-38
0.441 	3.68293e-39
0.4417 	3.35211e-39
0.4424 	3.01827e-39
0.4431 	2.68443e-39
0.4438 	2.35059e-39
0.4445 	3.58662e-39
0.4452 	4.22492e-39
0.4459 	1.38971e-39
0.4466 	9.99478e-40
0.4473 	8.59368e-40
0.448 	7.19257e-40
0.4487 	5.79147e-40
0.4494 	6.47683e-40
0.4501 	8.0198e-40
0.4508 	3.24533e-40
0.4515 	1.86015e-40
0.4522 	1.51862e-40
0.4529 	1.17709e-40
0.4536 	8.35565e-41
0.4543 	6.70601e-41
0.455 	7.94626e-41
0.4557 	3.79077e-41
0.4564 	1.95181e-41
0.4571 	1.51944e-41
0.4578 	1.08706e-41
0.4585 	6.54688e-42
0.4592 	3.21696e-42
0.4599 	3.09535e-42
0.4606 	1.8299e-42
0.4613 	9.61998e-43
0.462 	7.29807e-43
0.4627 	4.97615e-43
0.4634 	2.65423e-43
0.4641 	5.40301e-44
0.4648 	4.36973e-44
0.4655 	2.89453e-44
0.4662 	1.66594e-44
0.4669 	1.26135e-44
0.4676 	8.55435e-45
0.4683 	4.49515e-45
0.469 	4.35963e-46
0.4697 	1.77742e-46
0.4704 	1.20884e-46
0.4711 	7.50369e-47
0.4718 	5.73527e-47
0.4725 	3.94388e-47
0.4732 	2.15248e-47
0.4739 	3.61089e-48
0.4746 	1.35788e-49
0.4753 	9.38534e-50
0.476 	6.28391e-50
0.4767 	4.86464e-50
0.4774 	3.40621e-50
0.4781 	1.94779e-50
0.4788 	4.89362e-51
0.4795 	1.22453e-53
0.4802 	8.49124e-54
0.4809 	5.84554e-54
0.4816 	4.47484e-54
0.4823 	3.18824e-54
0.483 	1.90163e-54
0.4837 	6.15019e-55
0.4844 	9.87762e-58
0.4851 	9.51636e-58
0.4858 	4.91395e-58
0.4865 	3.18175e-58
0.4872 	2.30301e-58
0.4879 	1.42428e-58
0.4886 	5.45541e-59
0.4893 	1.75932e-59
0.49 	6.37054e-59
0.4907 	1.75635e-59
0.4914 	2.45534e-62
0.4921 	1.80283e-62
0.4928 	1.15031e-62
0.4935 	4.97797e-63
0.4942 	1.06785e-60
0.4949 	5.5691e-60
0.4956 	2.35403e-60
0.4963 	7.59263e-67
0.497 	5.79581e-67
0.4977 	3.99899e-67
0.4984 	2.20218e-67
0.4991 	1.60162e-62
0.4998 	1.85531e-61
0.5005 	1.12886e-61
0.5012 	6.33788e-68
0.5019 	6.46526e-68
0.5026 	6.58066e-68
0.5033 	6.69606e-68
0.504 	6.81146e-68
0.5047 	1.42773e-63
0.5054 	1.21347e-63
0.5061 	7.62115e-68
0.5068 	7.7663e-68
0.5075 	7.89117e-68
0.5082 	8.01604e-68
0.5089 	8.14091e-68
0.5096 	1.701e-66
0.5103 	1.98883e-66
0.511 	8.76601e-68
0.5117 	8.84344e-68
0.5124 	8.90485e-68
0.5131 	8.96625e-68
0.5138 	9.02765e-68
0.5145 	1.66097e-67
0.5152 	2.14896e-67
0.5159 	1.01949e-67
0.5166 	9.0833e-68
0.5173 	9.04513e-68
0.518 	9.00695e-68
0.5187 	8.96877e-68
0.5194 	1.47357e-67
0.5201 	2.25805e-67
0.5208 	1.11858e-67
0.5215 	8.32051e-68
0.5222 	8.16387e-68
0.5229 	8.00724e-68
0.5236 	7.85061e-68
0.5243 	1.10789e-67
0.525 	1.98127e-67
0.5257 	1.02191e-67
0.5264 	6.35063e-68
0.5271 	6.10622e-68
0.5278 	5.8618e-68
0.5285 	5.61739e-68
0.5292 	6.74618e-68
0.5299 	1.2272e-67
0.5306 	7.44709e-68
0.5313 	3.83716e-68
0.532 	3.60122e-68
0.5327 	3.36528e-68
0.5334 	3.12934e-68
0.5341 	3.1742e-68
0.5348 	5.88687e-68
0.5355 	4.1557e-68
0.5362 	1.72671e-68
0.5369 	1.56493e-68
0.5376 	1.41142e-68
0.5383 	1.2579e-68
0.539 	1.10439e-68
0.5397 	2.0218e-68
0.5404 	1.65978e-68
0.5411 	5.35198e-69
0.5418 	4.59767e-69
0.5425 	3.95441e-69
0.5432 	3.31115e-69
0.5439 	2.66789e-69
0.5446 	4.48653e-69
0.5453 	4.36323e-69
0.546 	1.03052e-69
0.5467 	8.24927e-70
0.5474 	6.67689e-70
0.5481 	5.10451e-70
0.5488 	3.53213e-70
0.5495 	5.58401e-70
0.5502 	6.83108e-70
0.5509 	1.54237e-70
0.5516 	7.94344e-71
0.5523 	6.04844e-71
0.553 	4.15345e-71
0.5537 	2.25846e-71
0.5544 	3.54311e-71
0.5551 	6.42539e-71
0.5558 	1.57988e-71
0.5565 	3.15898e-72
0.5572 	2.29506e-72
0.5579 	1.43114e-72
0.5586 	5.67221e-73
0.5593 	2.17633e-72
0.56 	7.79488e-72
0.5607 	2.07057e-72
0.5614 	-2.96341e-73
0.5621 	-3.15436e-73
0.5628 	-3.3453e-73
0.5635 	-3.53625e-73
0.5642 	-6.57779e-74
0.5649 	1.20076e-72
0.5656 	2.74098e-73
0.5663 	-6.60116e-73
0.567 	-6.73439e-73
0.5677 	-6.86762e-73
0.5684 	-7.00085e-73
0.5691 	-7.74532e-73
0.5698 	-1.42456e-72
0.5705 	-1.18157e-72
0.5712 	-1.07808e-72
0.5719 	-1.16141e-72
0.5726 	-1.18242e-72
0.5733 	-1.20344e-72
0.574 	-1.22445e-72
0.5747 	-3.22599e-72
0.5754 	-2.96821e-72
0.5761 	-1.55793e-72
0.5768 	-1.84234e-72
0.5775 	-1.87203e-72
0.5782 	-1.90173e-72
0.5789 	-1.93142e-72
0.5796 	-4.74506e-72
0.5803 	-5.28368e-72
0.581 	-2.15112e-72
0.5817 	-2.73843e-72
0.5824 	-2.77774e-72
0.5831 	-2.81705e-72
0.5838 	-2.85635e-72
0.5845 	-6.25119e-72
0.5852 	-8.45905e-72
0.5859 	-3.52572e-72
0.5866 	-3.84405e-72
0.5873 	-3.89255e-72
0.588 	-3.94104e-72
0.5887 	-3.98953e-72
0.5894 	-7.6825e-72
0.5901 	-1.26978e-71
0.5908 	-5.86418e-72
0.5915 	-5.11595e-72
0.5922 	-5.17165e-72
0.5929 	-5.22735e-72
0.5936 	-5.28304e-72
0.5943 	-8.81388e-72
0.595 	-1.79603e-71
0.5957 	-8.98757e-72
0.5964 	-6.47176e-72
0.5971 	-6.531e-72
0.5978 	-6.59024e-72
0.5985 	-6.64949e-72
0.5992 	-9.41964e-72
0.5999 	-2.07967e-71
0.6006 	-1.28225e-71
0.6013 	-7.7967e-72
0.602 	-7.8544e-72
0.6027 	-7.91209e-72
0.6034 	-7.96979e-72
0.6041 	-9.32614e-72
0.6048 	-2.28023e-71
0.6055 	-1.71447e-71
0.6062 	-8.83693e-72
0.6069 	-9.01012e-72
0.6076 	-9.06045e-72
0.6083 	-9.11079e-72
0.609 	-9.16112e-72
0.6097 	-2.36869e-71
0.6104 	-2.15892e-71
0.6111 	-9.58127e-72
0.6118 	-9.87405e-72
0.6125 	-9.9115e-72
0.6132 	-9.94894e-72
0.6139 	-9.98638e-72
0.6146 	-2.3318e-71
0.6153 	-2.57026e-71
0.616 	-1.0142e-71
0.6167 	-1.03529e-71
0.6174 	-1.03733e-71
0.6181 	-1.03936e-71
0.6188 	-1.0414e-71
0.6195 	-2.17516e-71
0.6202 	-2.90251e-71
0.6209 	-1.21112e-71
0.6216 	-1.04012e-71
0.6223 	-1.04025e-71
0.623 	-1.04039e-71
0.6237 	-1.04052e-71
0.6244 	-1.92156e-71
0.6251 	-3.11804e-71
0.6258 	-1.44024e-71
0.6265 	-1.00282e-71
0.6272 	-1.0011e-71
0.6279 	-9.99373e-72
0.6286 	-9.97649e-72
0.6293 	-1.60538e-71
0.63 	-3.19474e-71
0.6307 	-1.59786e-71
0.6314 	-9.29263e-72
0.6321 	-9.25952e-72
0.6328 	-9.22642e-72
0.6335 	-9.19332e-72
0.6342 	-1.26498e-71
0.6349 	-2.71387e-71
0.6356 	-1.66893e-71
0.6363 	-8.28846e-72
0.637 	-8.24378e-72
0.6377 	-8.1991e-72
0.6384 	-8.15442e-72
0.6391 	-9.35423e-72
0.6398 	-2.20678e-71
0.6405 	-1.65161e-71
0.6412 	-7.263e-72
0.6419 	-7.07489e-72
0.6426 	-7.02362e-72
0.6433 	-6.97236e-72
0.644 	-6.92109e-72
0.6447 	-1.71867e-71
0.6454 	-1.5561e-71
0.6461 	-6.32843e-72
0.6468 	-5.86107e-72
0.6475 	-5.80806e-72
0.6482 	-5.75506e-72
0.6489 	-5.70205e-72
0.6496 	-1.28233e-71
0.6503 	-1.40113e-71
0.651 	-5.39298e-72
0.6517 	-4.69332e-72
0.6524 	-4.6426e-72
0.6531 	-4.59188e-72
0.6538 	-4.54117e-72
0.6545 	-9.16433e-72
0.6552 	-1.20945e-71
0.6559 	-5.01838e-72
0.6566 	-3.63722e-72
0.6573 	-3.59165e-72
0.658 	-3.54608e-72
0.6587 	-3.50052e-72
0.6594 	-6.26827e-72
0.6601 	-1.00344e-71
0.6608 	-4.6117e-72
0.6615 	-2.73116e-72
0.6622 	-2.69237e-72
0.6629 	-2.65358e-72
0.6636 	-2.61479e-72
0.6643 	-4.09645e-72
0.665 	-8.01969e-72
0.6657 	-3.99278e-72
0.6664 	-1.98919e-72
0.6671 	-1.9577e-72
0.6678 	-1.92622e-72
0.6685 	-1.89473e-72
0.6692 	-2.5501e-72
0.6699 	-5.36881e-72
0.6706 	-3.28506e-72
0.6713 	-1.40655e-72
0.672 	-1.38206e-72
0.6727 	-1.35758e-72
0.6734 	-1.3331e-72
0.6741 	-1.50415e-72
0.6748 	-3.47065e-72
0.6755 	-2.58329e-72
0.6762 	-1.01115e-72
0.6769 	-9.48008e-73
0.6776 	-9.29706e-73
0.6783 	-9.11404e-73
0.679 	-8.93102e-73
0.6797 	-2.16609e-72
0.6804 	-1.94955e-72
0.6811 	-7.42057e-73
0.6818 	-6.32189e-73
0.6825 	-6.19002e-73
0.6832 	-6.05816e-73
0.6839 	-5.92629e-73
0.6846 	-1.30431e-72
0.6853 	-1.41605e-72
0.686 	-5.31168e-73
0.6867 	-4.09758e-73
0.6874 	-4.00565e-73
0.6881 	-3.91372e-73
0.6888 	-3.82179e-73
0.6895 	-7.56054e-73
0.6902 	-9.90894e-73
0.6909 	-4.06133e-73
0.6916 	-2.54275e-73
0.6923 	-2.47834e-73
0.693 	-2.41392e-73
0.6937 	-2.34951e-73
0.6944 	-4.11138e-73
0.6951 	-6.5174e-73
0.6958 	-2.95479e-73
0.6965 	-6.63416e-74
0.6972 	-6.06172e-74
0.6979 	-5.48928e-74
0.6986 	-4.91683e-74
0.6993 	-4.16224e-74
0.7 	-3.11568e-74
