0 	1
0.0007 	1
0.0014 	1
0.0021 	1
0.0028 	1
0.0035 	1
0.0042 	1
0.0049 	1
0.0056 	1
0.0063 	1
0.007 	1
0.0077 	1
0.0084 	1
0.0091 	1
0.0098 	1
0.0105 	1
0.0112 	1
0.0119 	1
0.0126 	1
0.0133 	1
0.014 	1
0.0147 	1
0.0154 	1
0.0161 	1
0.0168 	1
0.0175 	1
0.0182 	1
0.0189 	1
0.0196 	1
0.0203 	1
0.021 	1
0.0217 	1
0.0224 	1
0.0231 	1
0.0238 	1
0.0245 	1
0.0252 	1
0.0259 	1
0.0266 	1
0.0273 	1
0.028 	1
0.0287 	1
0.0294 	1
0.0301 	1
0.0308 	1
0.0315 	1
0.0322 	1
0.0329 	1
0.0336 	1
0.0343 	1
0.035 	1
0.0357 	1
0.0364 	1
0.0371 	1
0.0378 	1
0.0385 	1
0.0392 	1
0.0399 	1
0.0406 	1
0.0413 	1
0.042 	1
0.0427 	1
0.0434 	1
0.0441 	1
0.0448 	1
0.0455 	1
0.0462 	1
0.0469 	1
0.0476 	1
0.0483 	1
0.049 	1
0.0497 	1
0.0504 	1
0.0511 	1
0.0518 	1
0.0525 	1
0.0532 	1
0.0539 	1
0.0546 	1
0.0553 	1
0.056 	1
0.0567 	1
0.0574 	1
0.0581 	1
0.0588 	1
0.0595 	1
0.0602 	1
0.0609 	1
0.0616 	1
0.0623 	1
0.063 	1
0.0637 	1
0.0644 	1
0.0651 	1
0.0658 	1
0.0665 	1
0.0672 	1
0.0679 	1
0.0686 	1
0.0693 	1
0.07 	1
0.0707 	1
0.0714 	1
0.0721 	1
0.0728 	1
0.0735 	1
0.0742 	1
0.0749 	1
0.0756 	1
0.0763 	1
0.077 	1
0.0777 	1
0.0784 	1
0.0791 	1
0.0798 	1
0.0805 	1
0.0812 	1
0.0819 	1
0.0826 	1
0.0833 	1
0.084 	1
0.0847 	1
0.0854 	1
0.0861 	1
0.0868 	1
0.0875 	1
0.0882 	1
0.0889 	1
0.0896 	1
0.0903 	1
0.091 	1
0.0917 	1
0.0924 	1
0.0931 	1
0.0938 	1
0.0945 	1
0.0952 	1
0.0959 	1
0.0966 	1
0.0973 	1
0.098 	1
0.0987 	1
0.0994 	1
0.1001 	1
0.1008 	1
0.1015 	1
0.1022 	1
0.1029 	1
0.1036 	1
0.1043 	1
0.105 	1
0.1057 	1
0.1064 	1
0.1071 	1
0.1078 	1
0.1085 	1
0.1092 	1
0.1099 	1
0.1106 	1
0.1113 	1
0.112 	1
0.1127 	1
0.1134 	1
0.1141 	1
0.1148 	1
0.1155 	1
0.1162 	1
0.1169 	1
0.1176 	1
0.1183 	1
0.119 	1
0.1197 	1
0.1204 	1
0.1211 	1
0.1218 	1
0.1225 	1
0.1232 	1
0.1239 	1
0.1246 	1
0.1253 	1
0.126 	1
0.1267 	1
0.1274 	1
0.1281 	1
0.1288 	1
0.1295 	1
0.1302 	1
0.1309 	1
0.1316 	1
0.1323 	1
0.133 	1
0.1337 	1
0.1344 	1
0.1351 	1
0.1358 	1
0.1365 	1
0.1372 	1
0.1379 	1
0.1386 	1
0.1393 	1
0.14 	1
0.1407 	1
0.1414 	1
0.1421 	1
0.1428 	1
0.1435 	1
0.1442 	1
0.1449 	1
0.1456 	1
0.1463 	1
0.147 	1
0.1477 	1
0.1484 	1
0.1491 	1
0.1498 	1
0.1505 	1
0.1512 	1
0.1519 	1
0.1526 	1
0.1533 	1
0.154 	1
0.1547 	1
0.1554 	1
0.1561 	1
0.1568 	1
0.1575 	1
0.1582 	1
0.1589 	1
0.1596 	1
0.1603 	1
0.161 	1
0.1617 	1
0.1624 	1
0.1631 	1
0.1638 	1
0.1645 	1
0.1652 	1
0.1659 	1
0.1666 	1
0.1673 	1
0.168 	1
0.1687 	1
0.1694 	1
0.1701 	1
0.1708 	1
0.1715 	1
0.1722 	1
0.1729 	1
0.1736 	1
0.1743 	1
0.175 	1
0.1757 	1
0.1764 	1
0.1771 	1
0.1778 	1
0.1785 	1
0.1792 	1
0.1799 	1
0.1806 	1
0.1813 	1
0.182 	1
0.1827 	1
0.1834 	1
0.1841 	1
0.1848 	1
0.1855 	1
0.1862 	1
0.1869 	1
0.1876 	1
0.1883 	1
0.189 	1
0.1897 	1
0.1904 	1
0.1911 	1
0.1918 	1
0.1925 	1
0.1932 	1
0.1939 	1
0.1946 	1
0.1953 	1
0.196 	1
0.1967 	1
0.1974 	1
0.1981 	1
0.1988 	1
0.1995 	1
0.2002 	1
0.2009 	1
0.2016 	1
0.2023 	1
0.203 	1
0.2037 	1
0.2044 	1
0.2051 	1
0.2058 	1
0.2065 	1
0.2072 	1
0.2079 	1
0.2086 	1
0.2093 	1
0.21 	1
0.2107 	1
0.2114 	1
0.2121 	1
0.2128 	1
0.2135 	1
0.2142 	1
0.2149 	1
0.2156 	1
0.2163 	1
0.217 	1
0.2177 	1
0.2184 	1
0.2191 	1
0.2198 	1
0.2205 	1
0.2212 	1
0.2219 	1
0.2226 	1
0.2233 	1
0.224 	1
0.2247 	1
0.2254 	1
0.2261 	1
0.2268 	1
0.2275 	1
0.2282 	1
0.2289 	1
0.2296 	1
0.2303 	1
0.231 	1
0.2317 	1
0.2324 	1
0.2331 	1
0.2338 	1
0.2345 	1
0.2352 	1
0.2359 	1
0.2366 	1
0.2373 	1
0.238 	1
0.2387 	1
0.2394 	1
0.2401 	1
0.2408 	1
0.2415 	1
0.2422 	1
0.2429 	1
0.2436 	1
0.2443 	1
0.245 	1
0.2457 	1
0.2464 	1
0.2471 	1
0.2478 	1
0.2485 	1
0.2492 	1
0.2499 	1
0.2506 	1
0.2513 	1
0.252 	1
0.2527 	1
0.2534 	1
0.2541 	1
0.2548 	1
0.2555 	1
0.2562 	1
0.2569 	1
0.2576 	1
0.2583 	1
0.259 	1
0.2597 	1
0.2604 	1
0.2611 	1
0.2618 	0.999999
0.2625 	0.999998
0.2632 	0.999997
0.2639 	0.999997
0.2646 	0.999996
0.2653 	0.999995
0.266 	0.999995
0.2667 	0.999988
0.2674 	0.999978
0.2681 	0.999968
0.2688 	0.999962
0.2695 	0.999949
0.2702 	0.999938
0.2709 	0.999929
0.2716 	0.999866
0.2723 	0.99975
0.273 	0.999633
0.2737 	0.999556
0.2744 	0.999408
0.2751 	0.999258
0.2758 	0.999142
0.2765 	0.998408
0.2772 	0.996561
0.2779 	0.994714
0.2786 	0.993384
0.2793 	0.99138
0.28 	0.989005
0.2807 	0.987723
0.2814 	0.981368
0.2821 	0.956411
0.2828 	0.931454
0.2835 	0.910578
0.2842 	0.884646
0.2849 	0.850262
0.2856 	0.821195
0.2863 	0.790755
0.287 	0.73094
0.2877 	0.671125
0.2884 	0.612961
0.2891 	0.548874
0.2898 	0.468971
0.2905 	0.385217
0.2912 	0.299923
0.2919 	0.252418
0.2926 	0.20782
0.2933 	0.163222
0.294 	0.120323
0.2947 	0.103572
0.2954 	0.0796345
0.2961 	0.050308
0.2968 	0.0374803
0.2975 	0.0291522
0.2982 	0.020824
0.2989 	0.006101
0.2996 	0.00603766
0.3003 	0.00508251
0.301 	0.00293828
0.3017 	0.00195966
0.3024 	0.00162857
0.3031 	0.00129748
0.3038 	5.07338e-05
0.3045 	6.4996e-05
0.3052 	6.68759e-05
0.3059 	3.77998e-05
0.3066 	2.22525e-05
0.3073 	2.02337e-05
0.308 	1.82149e-05
0.3087 	1.98182e-06
0.3094 	8.69868e-08
0.3101 	1.12279e-07
0.3108 	6.44381e-08
0.3115 	3.32015e-08
0.3122 	3.18527e-08
0.3129 	3.05039e-08
0.3136 	9.97221e-09
0.3143 	1.72368e-11
0.315 	2.41296e-11
0.3157 	1.70181e-11
0.3164 	1.1425e-11
0.3171 	1.13994e-11
0.3178 	1.13737e-11
0.3185 	9.362e-12
0.3192 	6.8344e-12
0.3199 	6.83742e-12
0.3206 	6.83917e-12
0.3213 	6.84072e-12
0.322 	6.84243e-12
0.3227 	6.84414e-12
0.3234 	6.84561e-12
0.3241 	6.84574e-12
0.3248 	6.84601e-12
0.3255 	6.84333e-12
0.3262 	6.83947e-12
0.3269 	6.83135e-12
0.3276 	6.82291e-12
0.3283 	6.81446e-12
0.329 	6.80401e-12
0.3297 	6.79073e-12
0.3304 	6.77327e-12
0.3311 	6.75269e-12
0.3318 	6.72004e-12
0.3325 	6.6841e-12
0.3332 	6.64815e-12
0.3339 	6.6092e-12
0.3346 	6.55846e-12
0.3353 	6.50246e-12
0.336 	6.43944e-12
0.3367 	6.35765e-12
0.3374 	6.26543e-12
0.3381 	6.17322e-12
0.3388 	6.08188e-12
0.3395 	5.96505e-12
0.3402 	5.84294e-12
0.3409 	5.70762e-12
0.3416 	5.55421e-12
0.3423 	5.38272e-12
0.343 	5.21123e-12
0.3437 	5.04606e-12
0.3444 	4.85249e-12
0.3451 	4.653e-12
0.3458 	4.4334e-12
0.3465 	4.20769e-12
0.3472 	3.97096e-12
0.3479 	3.73424e-12
0.3486 	3.50349e-12
0.3493 	3.2675e-12
0.35 	3.02784e-12
0.3507 	2.76457e-12
0.3514 	2.50873e-12
0.3521 	2.28014e-12
0.3528 	2.05155e-12
0.3535 	1.82393e-12
0.3542 	1.62084e-12
0.3549 	1.42997e-12
0.3556 	1.22318e-12
0.3563 	1.0189e-12
0.357 	8.81766e-13
0.3577 	7.44631e-13
0.3584 	6.05874e-13
0.3591 	4.92408e-13
0.3598 	4.14813e-13
0.3605 	3.29578e-13
0.3612 	2.41289e-13
0.3619 	1.94819e-13
0.3626 	1.51566e-13
0.3633 	1.08313e-13
0.364 	6.83066e-14
0.3647 	5.69305e-14
0.3654 	4.35578e-14
0.3661 	2.86875e-14
0.3668 	2.11642e-14
0.3675 	1.56447e-14
0.3682 	1.01251e-14
0.3689 	3.08901e-15
0.3696 	2.71755e-15
0.3703 	2.16849e-15
0.371 	1.38266e-15
0.3717 	9.68486e-16
0.3724 	7.60782e-16
0.3731 	5.53079e-16
0.3738 	1.24521e-16
0.3745 	1.1918e-16
0.3752 	1.1032e-16
0.3759 	9.26662e-17
0.3766 	8.09888e-17
0.3773 	7.5288e-17
0.378 	6.95872e-17
0.3787 	5.85314e-17
0.3794 	5.43125e-17
0.3801 	5.09042e-17
0.3808 	4.72548e-17
0.3815 	4.38863e-17
0.3822 	4.10233e-17
0.3829 	3.81604e-17
0.3836 	3.4813e-17
0.3843 	3.14005e-17
0.385 	2.81562e-17
0.3857 	2.50015e-17
0.3864 	2.20529e-17
0.3871 	1.98602e-17
0.3878 	1.76674e-17
0.3885 	1.52504e-17
0.3892 	1.28516e-17
0.3899 	1.07965e-17
0.3906 	8.70376e-18
0.3913 	6.68246e-18
0.392 	5.672e-18
0.3927 	4.66153e-18
0.3934 	3.57933e-18
0.3941 	2.55513e-18
0.3948 	2.07518e-18
0.3955 	1.55088e-18
0.3962 	1.00885e-18
0.3969 	7.89178e-19
0.3976 	5.94301e-19
0.3983 	3.99424e-19
0.399 	1.53394e-19
0.3997 	1.27793e-19
0.4004 	9.53052e-20
0.4011 	5.76516e-20
0.4018 	4.13951e-20
0.4025 	3.09739e-20
0.4032 	2.05527e-20
0.4039 	1.6946e-21
0.4046 	1.53479e-21
0.4053 	1.22813e-21
0.406 	7.25649e-22
0.4067 	4.82686e-22
0.4074 	3.83896e-22
0.4081 	2.85105e-22
0.4088 	2.50226e-24
0.4095 	2.58188e-24
0.4102 	2.36779e-24
0.4109 	1.41945e-24
0.4116 	8.78648e-25
0.4123 	7.4537e-25
0.413 	6.12093e-25
0.4137 	9.73781e-26
0.4144 	3.31146e-26
0.4151 	2.71586e-26
0.4158 	2.19547e-26
0.4165 	1.72742e-26
0.4172 	1.35358e-26
0.4179 	9.79747e-27
0.4186 	6.55878e-27
0.4193 	5.20731e-27
0.42 	4.17567e-27
0.4207 	3.33192e-27
0.4214 	2.5372e-27
0.4221 	1.92227e-27
0.4228 	1.30733e-27
0.4235 	7.63407e-28
0.4242 	5.64738e-28
0.4249 	4.50194e-28
0.4256 	3.5458e-28
0.4263 	2.64571e-28
0.427 	2.06407e-28
0.4277 	1.48242e-28
0.4284 	9.29311e-29
0.4291 	7.51603e-29
0.4298 	7.49202e-29
0.4305 	6.81305e-29
0.4312 	5.8721e-29
0.4319 	5.32064e-29
0.4326 	4.79915e-29
0.4333 	4.27766e-29
0.434 	4.24603e-29
0.4347 	4.49424e-29
0.4354 	4.33668e-29
0.4361 	3.8748e-29
0.4368 	3.52045e-29
0.4375 	3.19542e-29
0.4382 	2.87039e-29
0.4389 	2.7983e-29
0.4396 	2.87965e-29
0.4403 	2.79999e-29
0.441 	2.50566e-29
0.4417 	2.21295e-29
0.4424 	1.92115e-29
0.4431 	1.62934e-29
0.4438 	1.49843e-29
0.4445 	1.4437e-29
0.4452 	1.35726e-29
0.4459 	1.19155e-29
0.4466 	1.01859e-29
0.4473 	8.38381e-30
0.448 	6.58169e-30
0.4487 	5.48664e-30
0.4494 	4.85281e-30
0.4501 	4.20394e-30
0.4508 	3.51732e-30
0.4515 	2.85403e-30
0.4522 	2.23273e-30
0.4529 	1.61143e-30
0.4536 	1.13322e-30
0.4543 	9.18929e-31
0.455 	7.20049e-31
0.4557 	5.63846e-31
0.4564 	4.19166e-31
0.4571 	3.1674e-31
0.4578 	2.14313e-31
0.4585 	1.19359e-31
0.4592 	8.0077e-32
0.4599 	6.02068e-32
0.4606 	4.3701e-32
0.4613 	2.84019e-32
0.462 	2.14988e-32
0.4627 	1.45956e-32
0.4634 	7.38428e-33
0.4641 	2.46009e-33
0.4648 	2.04778e-33
0.4655 	1.47119e-33
0.4662 	8.28897e-34
0.4669 	6.37104e-34
0.4676 	4.79964e-34
0.4683 	3.22823e-34
0.469 	2.11483e-35
0.4697 	2.30921e-35
0.4704 	1.8765e-35
0.4711 	9.73468e-36
0.4718 	7.06333e-36
0.4725 	6.1262e-36
0.4732 	5.18907e-36
0.4739 	4.39905e-38
0.4746 	6.9198e-38
0.4753 	6.91568e-38
0.476 	3.54508e-38
0.4767 	2.27193e-38
0.4774 	2.16401e-38
0.4781 	2.05609e-38
0.4788 	1.86588e-41
0.4795 	4.00782e-41
0.4802 	4.88508e-41
0.4809 	2.60064e-41
0.4816 	1.44941e-41
0.4823 	1.4314e-41
0.483 	1.41338e-41
0.4837 	1.61967e-42
0.4844 	3.36106e-45
0.4851 	4.76295e-45
0.4858 	2.67857e-45
0.4865 	1.33225e-45
0.4872 	1.31443e-45
0.4879 	1.29662e-45
0.4886 	4.48626e-46
0.4893 	7.73492e-48
0.49 	9.65665e-48
0.4907 	7.66888e-48
0.4914 	5.76804e-48
0.4921 	4.18596e-48
0.4928 	2.60388e-48
0.4935 	1.39854e-48
0.4942 	1.59527e-48
0.4949 	1.9827e-48
0.4956 	1.69071e-48
0.4963 	1.28574e-48
0.497 	8.84125e-49
0.4977 	4.82512e-49
0.4984 	1.28471e-49
0.4991 	1.43569e-49
0.4998 	1.76562e-49
0.5005 	1.59269e-49
0.5012 	1.21863e-49
0.5019 	8.28239e-50
0.5026 	4.36588e-50
0.5033 	4.49375e-51
0.504 	3.36306e-51
0.5047 	3.85069e-51
0.5054 	3.57829e-51
0.5061 	2.73585e-51
0.5068 	1.88772e-51
0.5075 	1.03804e-51
0.5082 	1.88357e-52
0.5089 	1.79357e-53
0.5096 	1.60933e-53
0.5103 	1.35716e-53
0.511 	1.01442e-53
0.5117 	7.07799e-54
0.5124 	4.21245e-54
0.5131 	1.34691e-54
0.5138 	2.22665e-56
0.5145 	1.64982e-56
0.5152 	1.13823e-56
0.5159 	7.8972e-57
0.5166 	5.31039e-57
0.5173 	3.62186e-57
0.518 	1.93332e-57
0.5187 	1.3833e-58
0.5194 	4.03149e-60
0.5201 	4.00415e-60
0.5208 	2.43219e-60
0.5215 	1.35375e-60
0.5222 	1.16363e-60
0.5229 	9.73517e-61
0.5236 	2.98382e-61
0.5243 	2.92321e-64
0.525 	3.96623e-64
0.5257 	2.39061e-64
0.5264 	1.1364e-64
0.5271 	1.06068e-64
0.5278 	9.84952e-65
0.5285 	5.37057e-65
0.5292 	9.81137e-69
0.5299 	1.31073e-68
0.5306 	8.98392e-69
0.5313 	3.98584e-69
0.532 	3.69142e-69
0.5327 	3.39699e-69
0.5334 	2.53987e-69
0.5341 	3.30833e-73
0.5348 	4.31949e-73
0.5355 	3.31875e-73
0.5362 	1.51325e-73
0.5369 	1.2788e-73
0.5376 	1.16519e-73
0.5383 	1.05159e-73
0.539 	-7.39431e-77
0.5397 	-3.08162e-76
0.5404 	-2.76408e-76
0.5411 	-4.51759e-77
0.5418 	3.96248e-78
0.5425 	3.43955e-78
0.5432 	2.91661e-78
0.5439 	-1.37901e-76
0.5446 	-7.77719e-76
0.5453 	-8.69398e-76
0.546 	-2.30228e-76
0.5467 	-2.03847e-78
0.5474 	-2.16869e-78
0.5481 	-2.29891e-78
0.5488 	-6.96073e-77
0.5495 	-1.00844e-75
0.5502 	-1.41092e-75
0.5509 	-4.72518e-76
0.5516 	-3.36285e-78
0.5523 	-3.44648e-78
0.553 	-3.53012e-78
0.5537 	-3.6995e-78
0.5544 	-1.10098e-75
0.5551 	-1.94509e-75
0.5558 	-7.63774e-76
0.5565 	-4.39072e-78
0.5572 	-4.47372e-78
0.5579 	-4.55672e-78
0.5586 	-4.68365e-78
0.5593 	-1.0842e-75
0.56 	-2.45807e-75
0.5607 	-1.0845e-75
0.5614 	-5.28337e-78
0.5621 	-5.35254e-78
0.5628 	-5.42171e-78
0.5635 	-5.51241e-78
0.5642 	-9.77646e-76
0.5649 	-2.48977e-75
0.5656 	-1.40989e-75
0.5663 	-6.01696e-78
0.567 	-6.07265e-78
0.5677 	-6.12834e-78
0.5684 	-6.19055e-78
0.5691 	-8.01954e-76
0.5698 	-2.39336e-75
0.5705 	-1.71147e-75
0.5712 	-1.20251e-76
0.5719 	-6.66692e-78
0.5726 	-6.74438e-78
0.5733 	-6.82184e-78
0.574 	-5.82463e-76
0.5747 	-2.19412e-75
0.5754 	-1.96397e-75
0.5761 	-3.52464e-76
0.5768 	-7.26898e-78
0.5775 	-7.42802e-78
0.5782 	-7.58705e-78
0.5789 	-3.4646e-76
0.5796 	-1.92764e-75
0.5803 	-2.15356e-75
0.581 	-5.72457e-76
0.5817 	-7.87199e-78
0.5824 	-8.01221e-78
0.5831 	-8.15244e-78
0.5838 	-1.16257e-76
0.5845 	-1.62916e-75
0.5852 	-2.27754e-75
0.5859 	-7.64632e-76
0.5866 	-8.1806e-78
0.5873 	-8.18403e-78
0.588 	-8.18745e-78
0.5887 	-8.16451e-78
0.5894 	-1.32669e-75
0.5901 	-2.34093e-75
0.5908 	-9.20889e-76
0.5915 	-7.93809e-78
0.5922 	-7.73853e-78
0.5929 	-7.53896e-78
0.5936 	-7.38863e-78
0.5943 	-1.03993e-75
0.595 	-2.3541e-75
0.5957 	-1.03973e-75
0.5964 	-6.98265e-78
0.5971 	-6.80272e-78
0.5978 	-6.62279e-78
0.5985 	-6.47061e-78
0.5992 	-7.81476e-76
0.5999 	-1.98708e-75
0.6006 	-1.12588e-75
0.6013 	-6.33942e-78
0.602 	-6.30938e-78
0.6027 	-6.27934e-78
0.6034 	-6.24999e-78
0.6041 	-5.56703e-76
0.6048 	-1.65763e-75
0.6055 	-1.18588e-75
0.6062 	-8.50671e-77
0.6069 	-6.48031e-78
0.6076 	-6.52498e-78
0.6083 	-6.56965e-78
0.609 	-3.64917e-76
0.6097 	-1.36821e-75
0.6104 	-1.2251e-75
0.6111 	-2.22195e-76
0.6118 	-7.77735e-78
0.6125 	-8.3999e-78
0.6132 	-9.02245e-78
0.6139 	-2.04807e-76
0.6146 	-1.11762e-75
0.6153 	-1.24828e-75
0.616 	-3.36082e-76
0.6167 	-1.09434e-77
0.6174 	-1.19494e-77
0.6181 	-1.29554e-77
0.6188 	-7.24588e-77
0.6195 	-8.99745e-76
0.6202 	-1.25446e-75
0.6209 	-4.27762e-76
0.6216 	-1.48022e-77
0.6223 	-1.55822e-77
0.623 	-1.63623e-77
0.6237 	-1.67984e-77
0.6244 	-7.07493e-76
0.6251 	-1.23886e-75
0.6258 	-4.95568e-76
0.6265 	-1.79461e-77
0.6272 	-1.85337e-77
0.6279 	-1.91214e-77
0.6286 	-1.95221e-77
0.6293 	-5.38301e-76
0.63 	-1.19853e-75
0.6307 	-5.38705e-76
0.6314 	-2.03616e-77
0.6321 	-2.07829e-77
0.6328 	-2.12041e-77
0.6335 	-2.15359e-77
0.6342 	-3.91706e-76
0.6349 	-9.67484e-76
0.6356 	-5.56409e-76
0.6363 	-2.19866e-77
0.637 	-2.22139e-77
0.6377 	-2.24413e-77
0.6384 	-2.26434e-77
0.6391 	-2.68295e-76
0.6398 	-7.59586e-76
0.6405 	-5.49037e-76
0.6412 	-5.77531e-77
0.6419 	-2.26715e-77
0.6426 	-2.26818e-77
0.6433 	-2.26921e-77
0.644 	-1.68675e-76
0.6447 	-5.77531e-76
0.6454 	-5.18996e-76
0.6461 	-1.09918e-76
0.6468 	-2.21019e-77
0.6475 	-2.19018e-77
0.6482 	-2.17017e-77
0.6489 	-9.25479e-77
0.6496 	-4.23696e-76
0.6503 	-4.70823e-76
0.651 	-1.39255e-76
0.6517 	-2.05985e-77
0.6524 	-2.02254e-77
0.6531 	-1.98524e-77
0.6538 	-3.82453e-77
0.6545 	-2.98962e-76
0.6552 	-4.10538e-76
0.6559 	-1.49261e-76
0.6566 	-1.83781e-77
0.6573 	-1.78898e-77
0.658 	-1.74014e-77
0.6587 	-1.70615e-77
0.6594 	-2.02242e-76
0.6601 	-3.44611e-76
0.6608 	-1.44537e-76
0.6615 	-1.57252e-77
0.6622 	-1.51848e-77
0.6629 	-1.46444e-77
0.6636 	-1.42306e-77
0.6643 	-1.30672e-76
0.665 	-2.78933e-76
0.6657 	-1.30035e-76
0.6664 	-1.29293e-77
0.6671 	-1.23933e-77
0.6678 	-1.18574e-77
0.6685 	-1.14046e-77
0.6692 	-8.02168e-77
0.6699 	-1.87378e-76
0.6706 	-1.10327e-76
0.6713 	-1.0236e-77
0.672 	-9.74638e-78
0.6727 	-9.25677e-78
0.6734 	-8.80196e-78
0.6741 	-4.63937e-77
0.6748 	-1.2177e-76
0.6755 	-8.90992e-77
0.6762 	-1.32099e-77
0.6769 	-7.40073e-78
0.6776 	-6.98225e-78
0.6783 	-6.56377e-78
0.679 	-2.48999e-77
0.6797 	-7.65504e-77
0.6804 	-6.89316e-77
0.6811 	-1.68608e-77
0.6818 	-5.43712e-78
0.6825 	-5.09902e-78
0.6832 	-4.76092e-78
0.6839 	-1.20218e-77
0.6846 	-4.6543e-77
0.6853 	-5.13343e-77
0.686 	-1.64857e-77
0.6867 	-3.87263e-78
0.6874 	-3.61253e-78
0.6881 	-3.35242e-78
0.6888 	-4.82046e-78
0.6895 	-2.73545e-77
0.6902 	-3.69422e-77
0.6909 	-1.41643e-77
0.6916 	-2.67962e-78
0.6923 	-2.48805e-78
0.693 	-2.29649e-78
0.6937 	-2.17039e-78
0.6944 	-1.55248e-77
0.6951 	-2.57765e-77
0.6958 	-1.12147e-77
0.6965 	-1.82502e-78
0.6972 	-1.74487e-78
0.6979 	-1.66473e-78
0.6986 	-1.60487e-78
0.6993 	-1.03951e-77
0.7 	-2.15908e-77
