0 	1
0.0007 	1
0.0014 	1
0.0021 	1
0.0028 	1
0.0035 	1
0.0042 	1
0.0049 	1
0.0056 	1
0.0063 	1
0.007 	1
0.0077 	1
0.0084 	1
0.0091 	1
0.0098 	1
0.0105 	1
0.0112 	1
0.0119 	1
0.0126 	1
0.0133 	1
0.014 	1
0.0147 	1
0.0154 	1
0.0161 	1
0.0168 	1
0.0175 	1
0.0182 	1
0.0189 	1
0.0196 	1
0.0203 	1
0.021 	1
0.0217 	1
0.0224 	1
0.0231 	1
0.0238 	1
0.0245 	1
0.0252 	1
0.0259 	1
0.0266 	1
0.0273 	1
0.028 	1
0.0287 	1
0.0294 	1
0.0301 	1
0.0308 	1
0.0315 	1
0.0322 	1
0.0329 	1
0.0336 	1
0.0343 	1
0.035 	1
0.0357 	1
0.0364 	1
0.0371 	1
0.0378 	1
0.0385 	1
0.0392 	1
0.0399 	1
0.0406 	1
0.0413 	1
0.042 	1
0.0427 	1
0.0434 	1
0.0441 	1
0.0448 	1
0.0455 	1
0.0462 	1
0.0469 	1
0.0476 	1
0.0483 	1
0.049 	1
0.0497 	1
0.0504 	1
0.0511 	1
0.0518 	1
0.0525 	1
0.0532 	1
0.0539 	1
0.0546 	1
0.0553 	1
0.056 	1
0.0567 	1
0.0574 	1
0.0581 	1
0.0588 	1
0.0595 	1
0.0602 	1
0.0609 	1
0.0616 	1
0.0623 	1
0.063 	1
0.0637 	1
0.0644 	1
0.0651 	1
0.0658 	1
0.0665 	1
0.0672 	1
0.0679 	1
0.0686 	1
0.0693 	1
0.07 	1
0.0707 	1
0.0714 	1
0.0721 	1
0.0728 	1
0.0735 	1
0.0742 	1
0.0749 	1
0.0756 	1
0.0763 	1
0.077 	1
0.0777 	1
0.0784 	1
0.0791 	1
0.0798 	1
0.0805 	1
0.0812 	1
0.0819 	1
0.0826 	1
0.0833 	1
0.084 	1
0.0847 	1
0.0854 	1
0.0861 	1
0.0868 	1
0.0875 	1
0.0882 	1
0.0889 	1
0.0896 	1
0.0903 	1
0.091 	1
0.0917 	1
0.0924 	1
0.0931 	1
0.0938 	1
0.0945 	1
0.0952 	1
0.0959 	1
0.0966 	1
0.0973 	1
0.098 	1
0.0987 	1
0.0994 	1
0.1001 	1
0.1008 	1
0.1015 	1
0.1022 	1
0.1029 	1
0.1036 	1
0.1043 	1
0.105 	1
0.1057 	1
0.1064 	1
0.1071 	1
0.1078 	1
0.1085 	1
0.1092 	1
0.1099 	1
0.1106 	1
0.1113 	1
0.112 	1
0.1127 	1
0.1134 	1
0.1141 	1
0.1148 	1
0.1155 	1
0.1162 	1
0.1169 	1
0.1176 	1
0.1183 	1
0.119 	1
0.1197 	1
0.1204 	1
0.1211 	1
0.1218 	1
0.1225 	1
0.1232 	1
0.1239 	1
0.1246 	1
0.1253 	1
0.126 	1
0.1267 	1
0.1274 	1
0.1281 	1
0.1288 	1
0.1295 	1
0.1302 	1
0.1309 	1
0.1316 	1
0.1323 	1
0.133 	1
0.1337 	1
0.1344 	1
0.1351 	1
0.1358 	1
0.1365 	1
0.1372 	1
0.1379 	1
0.1386 	1
0.1393 	1
0.14 	1
0.1407 	1
0.1414 	1
0.1421 	1
0.1428 	1
0.1435 	1
0.1442 	1
0.1449 	1
0.1456 	1
0.1463 	1
0.147 	1
0.1477 	1
0.1484 	1
0.1491 	1
0.1498 	1
0.1505 	1
0.1512 	1
0.1519 	1
0.1526 	1
0.1533 	1
0.154 	1
0.1547 	1
0.1554 	1
0.1561 	1
0.1568 	1
0.1575 	1
0.1582 	1
0.1589 	1
0.1596 	1
0.1603 	1
0.161 	1
0.1617 	1
0.1624 	1
0.1631 	1
0.1638 	1
0.1645 	1
0.1652 	1
0.1659 	1
0.1666 	1
0.1673 	1
0.168 	1
0.1687 	1
0.1694 	1
0.1701 	1
0.1708 	1
0.1715 	1
0.1722 	1
0.1729 	1
0.1736 	1
0.1743 	1
0.175 	1
0.1757 	1
0.1764 	1
0.1771 	1
0.1778 	1
0.1785 	1
0.1792 	1
0.1799 	1
0.1806 	1
0.1813 	1
0.182 	1
0.1827 	1
0.1834 	1
0.1841 	1
0.1848 	1
0.1855 	1
0.1862 	1
0.1869 	1
0.1876 	1
0.1883 	1
0.189 	1
0.1897 	1
0.1904 	1
0.1911 	1
0.1918 	1
0.1925 	1
0.1932 	1
0.1939 	1
0.1946 	1
0.1953 	1
0.196 	1
0.1967 	1
0.1974 	1
0.1981 	1
0.1988 	1
0.1995 	1
0.2002 	1
0.2009 	1
0.2016 	1
0.2023 	1
0.203 	1
0.2037 	1
0.2044 	1
0.2051 	1
0.2058 	1
0.2065 	1
0.2072 	1
0.2079 	1
0.2086 	1
0.2093 	1
0.21 	1
0.2107 	1
0.2114 	1
0.2121 	1
0.2128 	1
0.2135 	1
0.2142 	1
0.2149 	1
0.2156 	1
0.2163 	1
0.217 	1
0.2177 	1
0.2184 	1
0.2191 	1
0.2198 	1
0.2205 	1
0.2212 	1
0.2219 	1
0.2226 	1
0.2233 	1
0.224 	1
0.2247 	1
0.2254 	1
0.2261 	1
0.2268 	1
0.2275 	1
0.2282 	1
0.2289 	1
0.2296 	1
0.2303 	1
0.231 	1
0.2317 	1
0.2324 	1
0.2331 	1
0.2338 	1
0.2345 	1
0.2352 	1
0.2359 	1
0.2366 	1
0.2373 	1
0.238 	1
0.2387 	1
0.2394 	1
0.2401 	1
0.2408 	1
0.2415 	1
0.2422 	1
0.2429 	1
0.2436 	1
0.2443 	1
0.245 	1
0.2457 	1
0.2464 	1
0.2471 	0.999998
0.2478 	0.999997
0.2485 	0.999996
0.2492 	0.999994
0.2499 	0.999991
0.2506 	0.999989
0.2513 	0.999975
0.252 	0.999795
0.2527 	0.999561
0.2534 	0.999327
0.2541 	0.999013
0.2548 	0.998617
0.2555 	0.998258
0.2562 	0.997912
0.2569 	0.993015
0.2576 	0.985964
0.2583 	0.978913
0.259 	0.970183
0.2597 	0.958428
0.2604 	0.946636
0.2611 	0.934816
0.2618 	0.90277
0.2625 	0.859975
0.2632 	0.81689
0.2639 	0.768291
0.2646 	0.699479
0.2653 	0.630678
0.266 	0.561894
0.2667 	0.497181
0.2674 	0.435515
0.2681 	0.37404
0.2688 	0.313017
0.2695 	0.257872
0.2702 	0.20246
0.2709 	0.146383
0.2716 	0.102247
0.2723 	0.0737419
0.273 	0.0471194
0.2737 	0.0204969
0.2744 	0.0160355
0.2751 	0.0131253
0.2758 	0.00929191
0.2765 	0.00593785
0.2772 	0.00397688
0.2779 	0.00250596
0.2786 	0.00103503
0.2793 	0.00061692
0.28 	0.000485959
0.2807 	0.000353577
0.2814 	0.000232704
0.2821 	0.000161638
0.2828 	0.000103133
0.2835 	4.46289e-05
0.2842 	2.06038e-05
0.2849 	1.57349e-05
0.2856 	1.15593e-05
0.2863 	7.64813e-06
0.287 	5.63507e-06
0.2877 	3.50069e-06
0.2884 	1.36631e-06
0.2891 	2.73282e-07
0.2898 	2.21663e-07
0.2905 	1.68969e-07
0.2912 	1.15846e-07
0.2919 	9.40724e-08
0.2926 	5.8578e-08
0.2933 	2.30836e-08
0.294 	2.78802e-10
0.2947 	3.16514e-10
0.2954 	2.90324e-10
0.2961 	2.16209e-10
0.2968 	1.95372e-10
0.2975 	1.30862e-10
0.2982 	6.3262e-11
0.2989 	1.01916e-11
0.2996 	1.03997e-11
0.3003 	1.06843e-11
0.301 	1.10712e-11
0.3017 	1.12455e-11
0.3024 	1.13377e-11
0.3031 	1.14386e-11
0.3038 	1.15158e-11
0.3045 	1.12863e-11
0.3052 	1.10791e-11
0.3059 	1.09274e-11
0.3066 	1.0725e-11
0.3073 	1.044e-11
0.308 	1.01389e-11
0.3087 	9.83785e-12
0.3094 	9.4429e-12
0.3101 	9.03829e-12
0.3108 	8.61906e-12
0.3115 	8.21328e-12
0.3122 	7.78879e-12
0.3129 	7.325e-12
0.3136 	6.86121e-12
0.3143 	6.42714e-12
0.315 	6.00118e-12
0.3157 	5.55782e-12
0.3164 	5.13456e-12
0.3171 	4.76405e-12
0.3178 	4.35923e-12
0.3185 	3.95442e-12
0.3192 	3.60974e-12
0.3199 	3.29847e-12
0.3206 	2.98589e-12
0.3213 	2.67875e-12
0.322 	2.43927e-12
0.3227 	2.18119e-12
0.3234 	1.92311e-12
0.3241 	1.70432e-12
0.3248 	1.52484e-12
0.3255 	1.34905e-12
0.3262 	1.17474e-12
0.3269 	1.04273e-12
0.3276 	9.1353e-13
0.3283 	7.84326e-13
0.329 	6.71267e-13
0.3297 	5.8727e-13
0.3304 	5.031e-13
0.3311 	4.18799e-13
0.3318 	3.52258e-13
0.3325 	3.00822e-13
0.3332 	2.49903e-13
0.3339 	2.03778e-13
0.3346 	1.75227e-13
0.3353 	1.44655e-13
0.336 	1.11386e-13
0.3367 	8.4102e-14
0.3374 	6.78753e-14
0.3381 	5.34687e-14
0.3388 	3.97197e-14
0.3395 	3.45228e-14
0.3402 	2.83735e-14
0.3409 	1.9843e-14
0.3416 	1.24396e-14
0.3423 	8.71451e-15
0.343 	6.26327e-15
0.3437 	3.81202e-15
0.3444 	3.4286e-15
0.3451 	3.08507e-15
0.3458 	2.02633e-15
0.3465 	1.04187e-15
0.3472 	5.3683e-16
0.3479 	3.45242e-16
0.3486 	1.53655e-16
0.3493 	1.22637e-16
0.35 	1.35414e-16
0.3507 	8.82445e-17
0.3514 	4.22545e-17
0.3521 	1.45057e-17
0.3528 	9.27598e-18
0.3535 	4.04631e-18
0.3542 	2.24926e-18
0.3549 	2.35932e-18
0.3556 	1.79589e-18
0.3563 	1.13135e-18
0.357 	6.97242e-19
0.3577 	5.34936e-19
0.3584 	3.7263e-19
0.3591 	2.87527e-19
0.3598 	2.7963e-19
0.3605 	2.4606e-19
0.3612 	2.02222e-19
0.3619 	1.84414e-19
0.3626 	1.4811e-19
0.3633 	1.11806e-19
0.364 	8.63667e-20
0.3647 	8.04848e-20
0.3654 	7.02036e-20
0.3661 	5.66229e-20
0.3668 	5.07798e-20
0.3675 	3.92737e-20
0.3682 	2.73969e-20
0.3689 	1.76317e-20
0.3696 	1.56094e-20
0.3703 	1.31935e-20
0.371 	1.02526e-20
0.3717 	8.60651e-21
0.3724 	6.55384e-21
0.3731 	4.24045e-21
0.3738 	2.07116e-21
0.3745 	1.77567e-21
0.3752 	1.46595e-21
0.3759 	1.12066e-21
0.3766 	8.75089e-22
0.3773 	6.74363e-22
0.378 	4.4655e-22
0.3787 	2.18737e-22
0.3794 	1.76944e-22
0.3801 	1.48476e-22
0.3808 	1.14087e-22
0.3815 	8.41986e-23
0.3822 	6.51718e-23
0.3829 	4.86228e-23
0.3836 	3.20739e-23
0.3843 	2.55227e-23
0.385 	2.16983e-23
0.3857 	1.64306e-23
0.3864 	1.14223e-23
0.3871 	8.21502e-24
0.3878 	6.3682e-24
0.3885 	4.52138e-24
0.3892 	3.45895e-24
0.3899 	2.83233e-24
0.3906 	2.10231e-24
0.3913 	1.37038e-24
0.392 	9.03366e-25
0.3927 	6.4257e-25
0.3934 	3.81773e-25
0.3941 	2.2814e-25
0.3948 	1.81674e-25
0.3955 	1.33711e-25
0.3962 	8.51483e-26
0.3969 	5.40568e-26
0.3976 	3.56113e-26
0.3983 	1.71658e-26
0.399 	4.93339e-27
0.3997 	3.88491e-27
0.4004 	2.86884e-27
0.4011 	1.87706e-27
0.4018 	1.21595e-27
0.4025 	7.84566e-28
0.4032 	3.59444e-28
0.4039 	2.44107e-29
0.4046 	1.97269e-29
0.4053 	1.50353e-29
0.406 	1.03332e-29
0.4067 	7.21339e-30
0.4074 	4.78781e-30
0.4081 	2.32017e-30
0.4088 	2.85781e-32
0.4095 	2.6013e-32
0.4102 	2.247e-32
0.4109 	1.6482e-32
0.4116 	1.27019e-32
0.4123 	9.20707e-33
0.413 	4.7742e-33
0.4137 	3.41336e-34
0.4144 	2.87749e-35
0.4151 	3.15334e-35
0.4158 	2.41852e-35
0.4165 	1.93172e-35
0.4172 	1.54507e-35
0.4179 	8.50932e-36
0.4186 	1.56792e-36
0.4193 	9.74978e-38
0.42 	1.19261e-37
0.4207 	9.64336e-38
0.4214 	7.846e-38
0.4221 	7.51717e-38
0.4228 	6.69564e-38
0.4235 	5.87411e-38
0.4242 	6.50928e-38
0.4249 	7.95377e-38
0.4256 	6.9054e-38
0.4263 	5.54543e-38
0.427 	5.52725e-38
0.4277 	5.48276e-38
0.4284 	5.43828e-38
0.4291 	6.121e-38
0.4298 	7.53094e-38
0.4305 	6.89536e-38
0.4312 	5.44158e-38
0.4319 	5.29866e-38
0.4326 	5.07877e-38
0.4333 	4.85887e-38
0.434 	5.15113e-38
0.4347 	6.36531e-38
0.4354 	6.14083e-38
0.4361 	4.83734e-38
0.4368 	4.53436e-38
0.4375 	4.08879e-38
0.4382 	3.62579e-38
0.4389 	3.43574e-38
0.4396 	4.24663e-38
0.4403 	4.31402e-38
0.441 	3.39011e-38
0.4417 	3.04112e-38
0.4424 	2.60269e-38
0.4431 	2.07284e-38
0.4438 	1.60689e-38
0.4445 	1.97186e-38
0.4452 	2.10288e-38
0.4459 	1.649e-38
0.4466 	1.4128e-38
0.4473 	1.17526e-38
0.448 	8.32156e-39
0.4487 	4.89053e-39
0.4494 	5.50478e-39
0.4501 	6.10825e-39
0.4508 	4.77971e-39
0.4515 	3.90118e-39
0.4522 	3.25043e-39
0.4529 	2.08812e-39
0.4536 	9.25819e-40
0.4543 	7.54519e-40
0.455 	8.53514e-40
0.4557 	6.6674e-40
0.4564 	5.17236e-40
0.4571 	4.42393e-40
0.4578 	2.70526e-40
0.4585 	9.86588e-41
0.4592 	3.87911e-41
0.4599 	4.11485e-41
0.4606 	3.34371e-41
0.4613 	2.46505e-41
0.462 	2.18344e-41
0.4627 	1.33382e-41
0.4634 	4.84201e-42
0.4641 	5.81206e-43
0.4648 	5.55993e-43
0.4655 	4.57116e-43
0.4662 	3.28773e-43
0.4669 	2.91651e-43
0.4676 	1.82115e-43
0.4683 	7.25793e-44
0.469 	2.05363e-45
0.4697 	1.75055e-45
0.4704 	1.39695e-45
0.4711 	1.00545e-45
0.4718 	8.5172e-46
0.4725 	5.51795e-46
0.4732 	2.43625e-46
0.4739 	1.41106e-48
0.4746 	1.05311e-48
0.4753 	7.56618e-49
0.476 	5.42079e-49
0.4767 	4.18907e-49
0.4774 	2.84827e-49
0.4781 	1.37203e-49
0.4788 	1.19042e-52
0.4795 	8.88494e-53
0.4802 	6.24074e-53
0.4809 	4.53415e-53
0.4816 	3.38233e-53
0.4823 	2.40385e-53
0.483 	1.24378e-53
0.4837 	8.37033e-55
0.4844 	6.32689e-57
0.4851 	4.3692e-57
0.4858 	3.2156e-57
0.4865 	2.32747e-57
0.4872 	1.72101e-57
0.4879 	9.44041e-58
0.4886 	1.67075e-58
0.4893 	4.58253e-61
0.49 	3.12574e-61
0.4907 	2.32975e-61
0.4914 	1.64329e-61
0.4921 	1.26036e-61
0.4928 	7.25784e-62
0.4935 	1.91208e-62
0.4942 	2.21052e-65
0.4949 	1.25853e-65
0.4956 	8.57593e-66
0.4963 	5.5915e-66
0.497 	4.00104e-66
0.4977 	2.4406e-66
0.4984 	8.80163e-67
0.4991 	1.13508e-67
0.4998 	1.40673e-67
0.5005 	1.28924e-67
0.5012 	1.0161e-67
0.5019 	1.00116e-67
0.5026 	1.04079e-67
0.5033 	1.08043e-67
0.504 	1.21778e-67
0.5047 	1.53103e-67
0.5054 	1.48883e-67
0.5061 	1.18004e-67
0.5068 	1.11462e-67
0.5075 	1.15816e-67
0.5082 	1.20324e-67
0.5089 	1.31481e-67
0.5096 	1.67017e-67
0.5103 	1.72222e-67
0.511 	1.36987e-67
0.5117 	1.24424e-67
0.5124 	1.28128e-67
0.5131 	1.32624e-67
0.5138 	1.39641e-67
0.5145 	1.79432e-67
0.5152 	1.96476e-67
0.5159 	1.56653e-67
0.5166 	1.36699e-67
0.5173 	1.36745e-67
0.518 	1.36852e-67
0.5187 	1.3696e-67
0.5194 	1.73931e-67
0.5201 	2.02273e-67
0.5208 	1.61827e-67
0.5215 	1.35726e-67
0.5222 	1.33057e-67
0.5229 	1.28333e-67
0.5236 	1.23608e-67
0.5243 	1.50327e-67
0.525 	1.85622e-67
0.5257 	1.48771e-67
0.5264 	1.19717e-67
0.5271 	1.15478e-67
0.5278 	1.05468e-67
0.5285 	9.5459e-68
0.5292 	1.0866e-67
0.5299 	1.34757e-67
0.5306 	1.1428e-67
0.5313 	8.8021e-68
0.532 	8.45141e-68
0.5327 	7.21502e-68
0.5334 	5.97863e-68
0.5341 	6.11203e-68
0.5348 	7.61526e-68
0.5355 	6.83433e-68
0.5362 	5.13972e-68
0.5369 	4.87748e-68
0.5376 	3.86876e-68
0.5383 	2.86004e-68
0.539 	2.43408e-68
0.5397 	3.05715e-68
0.5404 	2.91075e-68
0.5411 	2.18726e-68
0.5418 	2.01993e-68
0.5425 	1.50553e-68
0.5432 	9.74497e-69
0.5439 	5.92493e-69
0.5446 	7.56989e-69
0.5453 	7.70046e-69
0.546 	5.81187e-69
0.5467 	5.11618e-69
0.5474 	3.78599e-69
0.5481 	2.18105e-69
0.5488 	7.06552e-70
0.5495 	9.281e-70
0.5502 	1.01733e-69
0.5509 	7.75753e-70
0.5516 	6.53696e-70
0.5523 	4.98779e-70
0.553 	2.73057e-70
0.5537 	4.73347e-71
0.5544 	4.11407e-71
0.5551 	4.87249e-71
0.5558 	3.76389e-71
0.5565 	3.04941e-71
0.5572 	2.45787e-71
0.5579 	1.36725e-71
0.5586 	2.76636e-72
0.5593 	4.04167e-73
0.56 	3.72318e-73
0.5607 	3.91625e-73
0.5614 	4.05658e-73
0.5621 	3.3868e-73
0.5628 	1.78329e-73
0.5635 	1.79778e-74
0.5642 	-3.01863e-73
0.5649 	-7.10315e-73
0.5656 	-4.34526e-73
0.5663 	-7.31103e-74
0.567 	-8.34809e-74
0.5677 	-1.01117e-73
0.5684 	-1.18754e-73
0.5691 	-4.97317e-73
0.5698 	-1.23682e-72
0.5705 	-9.39327e-73
0.5712 	-2.27028e-73
0.5719 	-1.88781e-73
0.5726 	-2.17551e-73
0.5733 	-2.46322e-73
0.574 	-7.01416e-73
0.5747 	-1.92393e-72
0.5754 	-1.77178e-72
0.5761 	-5.88623e-73
0.5768 	-3.47819e-73
0.5775 	-3.89354e-73
0.5782 	-4.31667e-73
0.5789 	-8.70532e-73
0.5796 	-2.76353e-72
0.5803 	-3.05734e-72
0.581 	-1.21889e-72
0.5817 	-5.76181e-73
0.5824 	-6.27881e-73
0.5831 	-6.85852e-73
0.5838 	-9.37395e-73
0.5845 	-3.70581e-72
0.5852 	-4.91259e-72
0.5859 	-2.21528e-72
0.5866 	-8.80088e-73
0.5873 	-9.38825e-73
0.588 	-1.0122e-72
0.5887 	-1.08557e-72
0.5894 	-4.65148e-72
0.5901 	-7.40282e-72
0.5908 	-3.65459e-72
0.5915 	-1.25616e-72
0.5922 	-1.31708e-72
0.5929 	-1.40313e-72
0.5936 	-1.48918e-72
0.5943 	-5.46577e-72
0.595 	-1.05035e-71
0.5957 	-5.56283e-72
0.5964 	-1.68804e-72
0.5971 	-1.74527e-72
0.5978 	-1.83851e-72
0.5985 	-1.93175e-72
0.5992 	-6.00493e-72
0.5999 	-1.22893e-71
0.6006 	-7.88612e-72
0.6013 	-2.14579e-72
0.602 	-2.19354e-72
0.6027 	-2.28599e-72
0.6034 	-2.37843e-72
0.6041 	-6.15095e-72
0.6048 	-1.36037e-71
0.6055 	-1.04759e-71
0.6062 	-3.11587e-72
0.6069 	-2.62233e-72
0.6076 	-2.70449e-72
0.6083 	-2.78666e-72
0.609 	-5.84427e-72
0.6097 	-1.4258e-71
0.6104 	-1.30989e-71
0.6111 	-4.7602e-72
0.6118 	-2.98927e-72
0.6125 	-3.05075e-72
0.6132 	-3.11337e-72
0.6139 	-5.103e-72
0.6146 	-1.41588e-71
0.6153 	-1.54732e-71
0.616 	-6.46585e-72
0.6167 	-3.25557e-72
0.6174 	-3.28712e-72
0.6181 	-3.32303e-72
0.6188 	-4.0211e-72
0.6195 	-1.33289e-71
0.6202 	-1.73226e-71
0.6209 	-8.0312e-72
0.6216 	-3.3852e-72
0.6223 	-3.38876e-72
0.623 	-3.39429e-72
0.6237 	-3.39982e-72
0.6244 	-1.18979e-71
0.6251 	-1.84323e-71
0.6258 	-9.26414e-72
0.6265 	-3.3664e-72
0.6272 	-3.34798e-72
0.6279 	-3.32359e-72
0.6286 	-3.2992e-72
0.6293 	-1.00685e-71
0.63 	-1.86907e-71
0.6307 	-1.00221e-71
0.6314 	-3.20693e-72
0.6321 	-3.17485e-72
0.6328 	-3.12478e-72
0.6335 	-3.07471e-72
0.6342 	-8.06972e-72
0.6349 	-1.58677e-71
0.6356 	-1.02384e-71
0.6363 	-2.93132e-72
0.637 	-2.89417e-72
0.6377 	-2.82535e-72
0.6384 	-2.75652e-72
0.6391 	-6.11275e-72
0.6398 	-1.28942e-71
0.6405 	-9.92819e-72
0.6412 	-3.06324e-72
0.6419 	-2.53996e-72
0.6426 	-2.4605e-72
0.6433 	-2.38104e-72
0.644 	-4.35849e-72
0.6447 	-1.00386e-71
0.6454 	-9.17628e-72
0.6461 	-3.40717e-72
0.6468 	-2.14775e-72
0.6475 	-2.06683e-72
0.6482 	-1.98459e-72
0.6489 	-2.9034e-72
0.6496 	-7.49299e-72
0.6503 	-8.11141e-72
0.651 	-3.43493e-72
0.6517 	-1.74694e-72
0.6524 	-1.67693e-72
0.6531 	-1.59842e-72
0.6538 	-1.7814e-72
0.6545 	-5.36427e-72
0.6552 	-6.87717e-72
0.6559 	-3.21518e-72
0.6566 	-1.37194e-72
0.6573 	-1.31589e-72
0.658 	-1.24568e-72
0.6587 	-1.17547e-72
0.6594 	-3.68325e-72
0.6601 	-5.60648e-72
0.6608 	-2.83237e-72
0.6615 	-1.04171e-72
0.6622 	-9.99894e-73
0.6629 	-9.40493e-73
0.6636 	-8.81091e-73
0.6643 	-2.42419e-72
0.665 	-4.40436e-72
0.6657 	-2.36867e-72
0.6664 	-7.65705e-73
0.6671 	-7.3657e-73
0.6678 	-6.88714e-73
0.6685 	-6.40857e-73
0.6692 	-1.5273e-72
0.6699 	-2.93282e-72
0.6706 	-1.89174e-72
0.6713 	-5.45504e-73
0.672 	-5.26575e-73
0.6727 	-4.89682e-73
0.6734 	-4.52789e-73
0.6741 	-9.18736e-73
0.6748 	-1.88755e-72
0.6755 	-1.44917e-72
0.6762 	-4.47924e-73
0.6769 	-3.65689e-73
0.6776 	-3.38372e-73
0.6783 	-3.11055e-73
0.679 	-5.25325e-73
0.6797 	-1.17447e-72
0.6804 	-1.06838e-72
0.6811 	-3.95852e-73
0.6818 	-2.46607e-73
0.6825 	-2.27425e-73
0.6832 	-2.07941e-73
0.6839 	-2.83307e-73
0.6846 	-7.06479e-73
0.6853 	-7.59964e-73
0.686 	-3.20532e-73
0.6867 	-1.60715e-73
0.6874 	-1.4878e-73
0.6881 	-1.35361e-73
0.6888 	-1.42081e-73
0.6895 	-4.10648e-73
0.6902 	-5.22623e-73
0.6909 	-2.43118e-73
0.6916 	-1.01883e-73
0.6923 	-9.47847e-74
0.693 	-8.58437e-74
0.6937 	-7.69028e-74
0.6944 	-2.30419e-73
0.6951 	-3.47983e-73
0.6958 	-1.74841e-73
0.6965 	-6.3119e-74
0.6972 	-6.06517e-74
0.6979 	-5.7118e-74
0.6986 	-5.35844e-74
0.6993 	-1.53668e-73
0.7 	-2.82013e-73
