0 	1
0.0007 	1
0.0014 	1
0.0021 	1
0.0028 	1
0.0035 	1
0.0042 	1
0.0049 	1
0.0056 	1
0.0063 	1
0.007 	1
0.0077 	1
0.0084 	1
0.0091 	1
0.0098 	1
0.0105 	1
0.0112 	1
0.0119 	1
0.0126 	1
0.0133 	1
0.014 	1
0.0147 	1
0.0154 	1
0.0161 	1
0.0168 	1
0.0175 	1
0.0182 	1
0.0189 	1
0.0196 	1
0.0203 	1
0.021 	1
0.0217 	1
0.0224 	1
0.0231 	1
0.0238 	1
0.0245 	1
0.0252 	1
0.0259 	1
0.0266 	1
0.0273 	1
0.028 	1
0.0287 	1
0.0294 	1
0.0301 	1
0.0308 	1
0.0315 	1
0.0322 	1
0.0329 	1
0.0336 	1
0.0343 	1
0.035 	1
0.0357 	1
0.0364 	1
0.0371 	1
0.0378 	1
0.0385 	1
0.0392 	1
0.0399 	1
0.0406 	1
0.0413 	1
0.042 	1
0.0427 	1
0.0434 	1
0.0441 	1
0.0448 	1
0.0455 	1
0.0462 	1
0.0469 	1
0.0476 	1
0.0483 	1
0.049 	1
0.0497 	1
0.0504 	1
0.0511 	1
0.0518 	1
0.0525 	1
0.0532 	1
0.0539 	1
0.0546 	1
0.0553 	1
0.056 	1
0.0567 	1
0.0574 	1
0.0581 	1
0.0588 	1
0.0595 	1
0.0602 	1
0.0609 	1
0.0616 	1
0.0623 	1
0.063 	1
0.0637 	1
0.0644 	1
0.0651 	1
0.0658 	1
0.0665 	1
0.0672 	1
0.0679 	1
0.0686 	1
0.0693 	1
0.07 	1
0.0707 	1
0.0714 	1
0.0721 	1
0.0728 	1
0.0735 	1
0.0742 	1
0.0749 	1
0.0756 	1
0.0763 	1
0.077 	1
0.0777 	1
0.0784 	1
0.0791 	1
0.0798 	1
0.0805 	1
0.0812 	1
0.0819 	1
0.0826 	1
0.0833 	1
0.084 	1
0.0847 	1
0.0854 	1
0.0861 	1
0.0868 	1
0.0875 	1
0.0882 	1
0.0889 	1
0.0896 	1
0.0903 	1
0.091 	1
0.0917 	1
0.0924 	1
0.0931 	1
0.0938 	1
0.0945 	1
0.0952 	1
0.0959 	1
0.0966 	1
0.0973 	1
0.098 	1
0.0987 	1
0.0994 	1
0.1001 	1
0.1008 	1
0.1015 	1
0.1022 	1
0.1029 	1
0.1036 	1
0.1043 	1
0.105 	1
0.1057 	1
0.1064 	1
0.1071 	1
0.1078 	1
0.1085 	1
0.1092 	1
0.1099 	1
0.1106 	1
0.1113 	1
0.112 	1
0.1127 	1
0.1134 	1
0.1141 	1
0.1148 	1
0.1155 	1
0.1162 	1
0.1169 	1
0.1176 	1
0.1183 	1
0.119 	1
0.1197 	1
0.1204 	1
0.1211 	1
0.1218 	1
0.1225 	1
0.1232 	1
0.1239 	1
0.1246 	1
0.1253 	1
0.126 	1
0.1267 	1
0.1274 	1
0.1281 	1
0.1288 	1
0.1295 	1
0.1302 	1
0.1309 	1
0.1316 	1
0.1323 	1
0.133 	1
0.1337 	1
0.1344 	1
0.1351 	1
0.1358 	1
0.1365 	1
0.1372 	1
0.1379 	1
0.1386 	1
0.1393 	1
0.14 	1
0.1407 	1
0.1414 	1
0.1421 	1
0.1428 	1
0.1435 	1
0.1442 	1
0.1449 	1
0.1456 	1
0.1463 	1
0.147 	1
0.1477 	1
0.1484 	1
0.1491 	1
0.1498 	1
0.1505 	1
0.1512 	1
0.1519 	1
0.1526 	1
0.1533 	1
0.154 	1
0.1547 	1
0.1554 	1
0.1561 	1
0.1568 	1
0.1575 	1
0.1582 	1
0.1589 	1
0.1596 	1
0.1603 	1
0.161 	1
0.1617 	1
0.1624 	1
0.1631 	1
0.1638 	1
0.1645 	1
0.1652 	1
0.1659 	1
0.1666 	1
0.1673 	1
0.168 	1
0.1687 	1
0.1694 	1
0.1701 	1
0.1708 	1
0.1715 	1
0.1722 	1
0.1729 	1
0.1736 	1
0.1743 	1
0.175 	1
0.1757 	1
0.1764 	1
0.1771 	1
0.1778 	1
0.1785 	1
0.1792 	1
0.1799 	1
0.1806 	1
0.1813 	1
0.182 	1
0.1827 	1
0.1834 	1
0.1841 	1
0.1848 	1
0.1855 	1
0.1862 	1
0.1869 	1
0.1876 	1
0.1883 	1
0.189 	1
0.1897 	1
0.1904 	1
0.1911 	1
0.1918 	1
0.1925 	1
0.1932 	1
0.1939 	1
0.1946 	1
0.1953 	1
0.196 	1
0.1967 	1
0.1974 	1
0.1981 	1
0.1988 	1
0.1995 	1
0.2002 	1
0.2009 	1
0.2016 	1
0.2023 	1
0.203 	1
0.2037 	1
0.2044 	1
0.2051 	1
0.2058 	1
0.2065 	1
0.2072 	1
0.2079 	1
0.2086 	1
0.2093 	1
0.21 	1
0.2107 	1
0.2114 	1
0.2121 	1
0.2128 	1
0.2135 	1
0.2142 	1
0.2149 	1
0.2156 	1
0.2163 	1
0.217 	1
0.2177 	1
0.2184 	1
0.2191 	1
0.2198 	1
0.2205 	1
0.2212 	1
0.2219 	1
0.2226 	1
0.2233 	1
0.224 	1
0.2247 	1
0.2254 	1
0.2261 	1
0.2268 	1
0.2275 	1
0.2282 	1
0.2289 	1
0.2296 	1
0.2303 	1
0.231 	1
0.2317 	1
0.2324 	1
0.2331 	1
0.2338 	1
0.2345 	1
0.2352 	1
0.2359 	1
0.2366 	1
0.2373 	1
0.238 	1
0.2387 	1
0.2394 	1
0.2401 	0.999999
0.2408 	0.999999
0.2415 	0.999999
0.2422 	0.999998
0.2429 	0.999998
0.2436 	0.999997
0.2443 	0.999996
0.245 	0.999992
0.2457 	0.99999
0.2464 	0.999982
0.2471 	0.999973
0.2478 	0.999964
0.2485 	0.999956
0.2492 	0.999947
0.2499 	0.999892
0.2506 	0.999876
0.2513 	0.999743
0.252 	0.999611
0.2527 	0.999478
0.2534 	0.999345
0.2541 	0.999212
0.2548 	0.998413
0.2555 	0.998355
0.2562 	0.995662
0.2569 	0.99297
0.2576 	0.990278
0.2583 	0.987586
0.259 	0.984893
0.2597 	0.977394
0.2604 	0.969679
0.2611 	0.948813
0.2618 	0.925665
0.2625 	0.902517
0.2632 	0.87937
0.2639 	0.856222
0.2646 	0.828453
0.2653 	0.755717
0.266 	0.701472
0.2667 	0.650067
0.2674 	0.598662
0.2681 	0.547256
0.2688 	0.49585
0.2695 	0.444445
0.2702 	0.398735
0.2709 	0.345174
0.2716 	0.300122
0.2723 	0.255068
0.273 	0.210015
0.2737 	0.164962
0.2744 	0.119908
0.2751 	0.112303
0.2758 	0.0948698
0.2765 	0.0790157
0.2772 	0.0631624
0.2779 	0.0473092
0.2786 	0.0314559
0.2793 	0.0156026
0.28 	0.0110588
0.2807 	0.00934972
0.2814 	0.00768636
0.2821 	0.0060234
0.2828 	0.00436045
0.2835 	0.0026975
0.2842 	0.00103455
0.2849 	0.000238169
0.2856 	0.000211251
0.2863 	0.000173851
0.287 	0.000136476
0.2877 	9.91011e-05
0.2884 	6.1726e-05
0.2891 	2.43509e-05
0.2898 	7.22541e-07
0.2905 	6.72584e-07
0.2912 	5.56064e-07
0.2919 	4.39681e-07
0.2926 	3.23308e-07
0.2933 	2.06934e-07
0.294 	9.05612e-08
0.2947 	2.055e-10
0.2954 	2.00822e-10
0.2961 	1.68025e-10
0.2968 	1.35271e-10
0.2975 	1.0253e-10
0.2982 	6.97888e-11
0.2989 	3.70478e-11
0.2996 	6.9377e-12
0.3003 	6.94057e-12
0.301 	6.939e-12
0.3017 	6.93684e-12
0.3024 	6.93464e-12
0.3031 	6.93245e-12
0.3038 	6.93025e-12
0.3045 	6.92806e-12
0.3052 	6.91659e-12
0.3059 	6.90055e-12
0.3066 	6.88074e-12
0.3073 	6.86082e-12
0.308 	6.8409e-12
0.3087 	6.82097e-12
0.3094 	6.80105e-12
0.3101 	6.75255e-12
0.3108 	6.69743e-12
0.3115 	6.63216e-12
0.3122 	6.56665e-12
0.3129 	6.50114e-12
0.3136 	6.43563e-12
0.3143 	6.37011e-12
0.315 	6.25786e-12
0.3157 	6.13348e-12
0.3164 	5.99582e-12
0.3171 	5.85784e-12
0.3178 	5.71985e-12
0.3185 	5.58187e-12
0.3192 	5.44388e-12
0.3199 	5.26476e-12
0.3206 	5.05249e-12
0.3213 	4.84095e-12
0.322 	4.62925e-12
0.3227 	4.41754e-12
0.3234 	4.20584e-12
0.3241 	3.99413e-12
0.3248 	3.77099e-12
0.3255 	3.50773e-12
0.3262 	3.26996e-12
0.3269 	3.03242e-12
0.3276 	2.79488e-12
0.3283 	2.55735e-12
0.329 	2.31982e-12
0.3297 	2.09722e-12
0.3304 	1.8867e-12
0.3311 	1.69832e-12
0.3318 	1.5148e-12
0.3325 	1.33139e-12
0.3332 	1.14798e-12
0.3339 	9.6457e-13
0.3346 	7.91123e-13
0.3353 	7.07811e-13
0.336 	6.12492e-13
0.3367 	5.24504e-13
0.3374 	4.36672e-13
0.3381 	3.48839e-13
0.3388 	2.61007e-13
0.3395 	1.73175e-13
0.3402 	1.58092e-13
0.3409 	1.33405e-13
0.3416 	1.1086e-13
0.3423 	8.83982e-14
0.343 	6.59364e-14
0.3437 	4.34747e-14
0.3444 	2.10129e-14
0.3451 	1.66756e-14
0.3458 	1.4062e-14
0.3465 	1.15896e-14
0.3472 	9.13388e-15
0.3479 	6.67816e-15
0.3486 	4.22245e-15
0.3493 	1.76673e-15
0.35 	9.34017e-16
0.3507 	8.19096e-16
0.3514 	7.10108e-16
0.3521 	6.02118e-16
0.3528 	4.94128e-16
0.3535 	3.86138e-16
0.3542 	2.78147e-16
0.3549 	2.20541e-16
0.3556 	2.03783e-16
0.3563 	1.87004e-16
0.357 	1.70268e-16
0.3577 	1.53532e-16
0.3584 	1.36796e-16
0.3591 	1.20061e-16
0.3598 	1.0671e-16
0.3605 	9.61113e-17
0.3612 	8.6233e-17
0.3619 	7.63645e-17
0.3626 	6.64968e-17
0.3633 	5.66292e-17
0.364 	4.67615e-17
0.3647 	3.84258e-17
0.3654 	3.38137e-17
0.3661 	2.92063e-17
0.3668 	2.47128e-17
0.3675 	2.02208e-17
0.3682 	1.57289e-17
0.3689 	1.12369e-17
0.3696 	7.06968e-18
0.3703 	6.44991e-18
0.371 	5.41584e-18
0.3717 	4.43343e-18
0.3724 	3.4521e-18
0.3731 	2.47077e-18
0.3738 	1.48945e-18
0.3745 	5.08121e-19
0.3752 	4.36388e-19
0.3759 	3.64675e-19
0.3766 	2.95715e-19
0.3773 	2.26939e-19
0.378 	1.58163e-19
0.3787 	8.93872e-20
0.3794 	2.06111e-20
0.3801 	6.37977e-21
0.3808 	5.36013e-21
0.3815 	4.36502e-21
0.3822 	3.37522e-21
0.3829 	2.38541e-21
0.3836 	1.3956e-21
0.3843 	4.05799e-22
0.385 	5.34257e-23
0.3857 	4.51831e-23
0.3864 	3.82692e-23
0.3871 	3.13928e-23
0.3878 	2.45163e-23
0.3885 	1.76399e-23
0.3892 	1.07635e-23
0.3899 	6.8928e-24
0.3906 	5.77613e-24
0.3913 	4.90774e-24
0.392 	4.04236e-24
0.3927 	3.17698e-24
0.3934 	2.3116e-24
0.3941 	1.44622e-24
0.3948 	8.49671e-25
0.3955 	7.05311e-25
0.3962 	5.89814e-25
0.3969 	4.74704e-25
0.3976 	3.59623e-25
0.3983 	2.44542e-25
0.399 	1.29461e-25
0.3997 	3.85523e-26
0.4004 	3.33064e-26
0.4011 	2.76486e-26
0.4018 	2.21193e-26
0.4025 	1.65965e-26
0.4032 	1.10736e-26
0.4039 	5.55075e-27
0.4046 	4.26806e-28
0.4053 	3.91507e-28
0.406 	3.28374e-28
0.4067 	2.72772e-28
0.4074 	2.17322e-28
0.4081 	1.61872e-28
0.4088 	1.06422e-28
0.4095 	5.09727e-29
0.4102 	4.62816e-29
0.4109 	3.97953e-29
0.4116 	3.75055e-29
0.4123 	3.52127e-29
0.413 	3.29199e-29
0.4137 	3.06272e-29
0.4144 	2.83344e-29
0.4151 	2.77283e-29
0.4158 	2.35766e-29
0.4165 	2.21724e-29
0.4172 	2.07633e-29
0.4179 	1.93542e-29
0.4186 	1.7945e-29
0.4193 	1.65359e-29
0.42 	1.55208e-29
0.4207 	1.30917e-29
0.4214 	1.2136e-29
0.4221 	1.11754e-29
0.4228 	1.02149e-29
0.4235 	9.25433e-30
0.4242 	8.29377e-30
0.4249 	7.27281e-30
0.4256 	6.11927e-30
0.4263 	5.57002e-30
0.427 	5.01787e-30
0.4277 	4.46572e-30
0.4284 	3.91357e-30
0.4291 	3.36142e-30
0.4298 	2.77598e-30
0.4305 	2.24531e-30
0.4312 	1.99637e-30
0.4319 	1.74664e-30
0.4326 	1.49686e-30
0.4333 	1.24707e-30
0.434 	9.97286e-31
0.4347 	7.561e-31
0.4354 	5.85051e-31
0.4361 	5.02935e-31
0.4368 	4.25302e-31
0.4375 	3.47668e-31
0.4382 	2.70034e-31
0.4389 	1.92401e-31
0.4396 	1.18147e-31
0.4403 	9.24964e-32
0.441 	7.70936e-32
0.4417 	6.34489e-32
0.4424 	4.98216e-32
0.4431 	3.61943e-32
0.4438 	2.2567e-32
0.4445 	8.93966e-33
0.4452 	6.98077e-33
0.4459 	5.78556e-33
0.4466 	4.70838e-33
0.4473 	3.63461e-33
0.448 	2.56084e-33
0.4487 	1.48708e-33
0.4494 	4.13312e-34
0.4501 	1.81208e-34
0.4508 	1.51587e-34
0.4515 	1.23369e-34
0.4522 	9.52991e-35
0.4529 	6.72294e-35
0.4536 	3.91598e-35
0.4543 	1.10901e-35
0.455 	1.03441e-36
0.4557 	8.73184e-37
0.4564 	7.13644e-37
0.4571 	5.55379e-37
0.4578 	3.97114e-37
0.4585 	2.38849e-37
0.4592 	8.05845e-38
0.4599 	7.72878e-40
0.4606 	6.8529e-40
0.4613 	5.62782e-40
0.462 	4.41713e-40
0.4627 	3.20645e-40
0.4634 	1.99577e-40
0.4641 	7.8509e-41
0.4648 	5.55691e-44
0.4655 	5.15272e-44
0.4662 	4.25235e-44
0.4669 	3.36451e-44
0.4676 	2.47765e-44
0.4683 	1.59078e-44
0.469 	7.0391e-45
0.4697 	3.21346e-47
0.4704 	1.7995e-47
0.4711 	1.18071e-47
0.4718 	9.86508e-48
0.4725 	7.90895e-48
0.4732 	5.95283e-48
0.4739 	3.9967e-48
0.4746 	2.37756e-48
0.4753 	2.20951e-48
0.476 	1.09151e-48
0.4767 	9.01143e-49
0.4774 	7.07216e-49
0.4781 	5.13288e-49
0.4788 	3.1936e-49
0.4795 	1.25432e-49
0.4802 	8.88265e-50
0.4809 	5.35962e-50
0.4816 	4.37036e-50
0.4823 	3.35876e-50
0.483 	2.34717e-50
0.4837 	1.33557e-50
0.4844 	3.23972e-51
0.4851 	6.93644e-52
0.4858 	5.02902e-52
0.4865 	4.10947e-52
0.4872 	3.17048e-52
0.4879 	2.23149e-52
0.4886 	1.2925e-52
0.4893 	3.53512e-53
0.49 	8.04662e-55
0.4907 	6.30299e-55
0.4914 	5.17708e-55
0.4921 	4.02912e-55
0.4928 	2.88115e-55
0.4935 	1.73319e-55
0.4942 	5.85229e-56
0.4949 	1.57373e-58
0.4956 	1.32011e-58
0.4963 	1.0912e-58
0.497 	8.5664e-59
0.4977 	6.22076e-59
0.4984 	3.87512e-59
0.4991 	1.52947e-59
0.4998 	6.26246e-63
0.5005 	5.35995e-63
0.5012 	4.45437e-63
0.5019 	3.52684e-63
0.5026 	2.59761e-63
0.5033 	1.66838e-63
0.504 	7.39151e-64
0.5047 	2.42861e-67
0.5054 	2.11569e-67
0.5061 	1.76145e-67
0.5068 	1.40622e-67
0.5075 	1.04921e-67
0.5082 	6.92195e-68
0.5089 	3.35181e-68
0.5096 	9.13212e-72
0.5103 	8.07068e-72
0.511 	6.7059e-72
0.5117 	5.39395e-72
0.5124 	4.07259e-72
0.5131 	2.75124e-72
0.5138 	1.42988e-72
0.5145 	1.08525e-73
0.5152 	1.02079e-76
0.5159 	-1.11113e-76
0.5166 	-3.13419e-76
0.5173 	-3.60771e-76
0.518 	-4.08122e-76
0.5187 	-4.55474e-76
0.5194 	-5.02825e-76
0.5201 	-7.00624e-76
0.5208 	-6.99252e-76
0.5215 	-9.3261e-76
0.5222 	-9.32901e-76
0.5229 	-9.33192e-76
0.5236 	-9.33483e-76
0.5243 	-9.33773e-76
0.525 	-1.36247e-75
0.5257 	-1.06486e-75
0.5264 	-1.34319e-75
0.5271 	-1.34353e-75
0.5278 	-1.34387e-75
0.5285 	-1.34421e-75
0.5292 	-1.34454e-75
0.5299 	-1.81656e-75
0.5306 	-1.41735e-75
0.5313 	-1.71351e-75
0.532 	-1.71386e-75
0.5327 	-1.71422e-75
0.5334 	-1.71458e-75
0.5341 	-1.71494e-75
0.5348 	-2.13845e-75
0.5355 	-1.73721e-75
0.5362 	-1.99394e-75
0.5369 	-2.01262e-75
0.5376 	-2.01298e-75
0.5383 	-2.01334e-75
0.539 	-2.0137e-75
0.5397 	-2.30438e-75
0.5404 	-2.09813e-75
0.5411 	-2.1779e-75
0.5418 	-2.21537e-75
0.5425 	-2.21571e-75
0.5432 	-2.21605e-75
0.5439 	-2.21639e-75
0.5446 	-2.3088e-75
0.5453 	-2.53772e-75
0.546 	-2.28241e-75
0.5467 	-2.31179e-75
0.5474 	-2.31209e-75
0.5481 	-2.31239e-75
0.5488 	-2.31269e-75
0.5495 	-2.31299e-75
0.5502 	-2.89334e-75
0.5509 	-2.30938e-75
0.5516 	-2.30649e-75
0.5523 	-2.30674e-75
0.553 	-2.30699e-75
0.5537 	-2.30724e-75
0.5544 	-2.30749e-75
0.5551 	-3.14491e-75
0.5558 	-2.26668e-75
0.5565 	-2.21538e-75
0.5572 	-2.21558e-75
0.5579 	-2.21578e-75
0.5586 	-2.21597e-75
0.5593 	-2.21617e-75
0.56 	-3.28786e-75
0.5607 	-2.16651e-75
0.5614 	-2.06121e-75
0.5621 	-2.06136e-75
0.5628 	-2.0615e-75
0.5635 	-2.06164e-75
0.5642 	-2.06178e-75
0.5649 	-2.85718e-75
0.5656 	-2.02368e-75
0.5663 	-1.86917e-75
0.567 	-1.86925e-75
0.5677 	-1.86934e-75
0.5684 	-1.86942e-75
0.5691 	-1.86951e-75
0.5698 	-2.39538e-75
0.5705 	-1.8539e-75
0.5712 	-1.675e-75
0.5719 	-1.66227e-75
0.5726 	-1.66231e-75
0.5733 	-1.66236e-75
0.574 	-1.66241e-75
0.5747 	-1.94402e-75
0.5754 	-1.73974e-75
0.5761 	-1.49576e-75
0.5768 	-1.45801e-75
0.5775 	-1.45804e-75
0.5782 	-1.45808e-75
0.5789 	-1.45812e-75
0.5796 	-1.5285e-75
0.5803 	-1.71629e-75
0.581 	-1.32634e-75
0.5817 	-1.26774e-75
0.5824 	-1.26779e-75
0.5831 	-1.26784e-75
0.5838 	-1.26789e-75
0.5845 	-1.26794e-75
0.5852 	-1.67739e-75
0.5859 	-1.17063e-75
0.5866 	-1.09698e-75
0.5873 	-1.09707e-75
0.588 	-1.09715e-75
0.5887 	-1.09724e-75
0.5894 	-1.09732e-75
0.5901 	-1.63412e-75
0.5908 	-1.03021e-75
0.5915 	-9.46816e-76
0.5922 	-9.46954e-76
0.5929 	-9.47091e-76
0.5936 	-9.47229e-76
0.5943 	-9.47367e-76
0.595 	-1.59198e-75
0.5957 	-9.04863e-76
0.5964 	-8.15431e-76
0.5971 	-8.15626e-76
0.5978 	-8.15821e-76
0.5985 	-8.16017e-76
0.5992 	-8.16212e-76
0.5999 	-1.27632e-75
0.6006 	-7.93146e-76
0.6013 	-6.99615e-76
0.602 	-6.99854e-76
0.6027 	-7.00093e-76
0.6034 	-7.00332e-76
0.6041 	-7.00571e-76
0.6048 	-9.97942e-76
0.6055 	-6.9291e-76
0.6062 	-6.0251e-76
0.6069 	-5.96285e-76
0.6076 	-5.96534e-76
0.6083 	-5.96784e-76
0.609 	-5.97033e-76
0.6097 	-7.5228e-76
0.6104 	-6.37889e-76
0.6111 	-5.19759e-76
0.6118 	-5.02338e-76
0.6125 	-5.02554e-76
0.6132 	-5.02769e-76
0.6139 	-5.02985e-76
0.6146 	-5.38661e-76
0.6153 	-6.41166e-76
0.616 	-4.43216e-76
0.6167 	-4.1661e-76
0.6174 	-4.16748e-76
0.6181 	-4.16885e-76
0.6188 	-4.17023e-76
0.6195 	-4.17161e-76
0.6202 	-6.25254e-76
0.6209 	-3.72509e-76
0.6216 	-3.388e-76
0.6223 	-3.3883e-76
0.623 	-3.38861e-76
0.6237 	-3.38891e-76
0.6244 	-3.38922e-76
0.6251 	-5.88588e-76
0.6258 	-3.07712e-76
0.6265 	-2.69326e-76
0.6272 	-2.69242e-76
0.6279 	-2.69157e-76
0.6286 	-2.69073e-76
0.6293 	-2.68989e-76
0.63 	-5.33203e-76
0.6307 	-2.49192e-76
0.6314 	-2.08822e-76
0.6321 	-2.08638e-76
0.6328 	-2.08454e-76
0.6335 	-2.0827e-76
0.6342 	-2.08085e-76
0.6349 	-3.68036e-76
0.6356 	-1.9741e-76
0.6363 	-1.57712e-76
0.637 	-1.57458e-76
0.6377 	-1.57204e-76
0.6384 	-1.5695e-76
0.6391 	-1.56696e-76
0.6398 	-2.41746e-76
0.6405 	-1.52735e-76
0.6412 	-1.18388e-76
0.6419 	-1.15668e-76
0.6426 	-1.15381e-76
0.6433 	-1.15094e-76
0.644 	-1.14807e-76
0.6447 	-1.50317e-76
0.6454 	-1.22818e-76
0.6461 	-8.86435e-77
0.6468 	-8.271e-77
0.6475 	-8.24234e-77
0.6482 	-8.21367e-77
0.6489 	-8.18501e-77
0.6496 	-8.77522e-77
0.6503 	-1.06689e-76
0.651 	-6.48899e-77
0.6517 	-5.75972e-77
0.6524 	-5.73362e-77
0.6531 	-5.70751e-77
0.6538 	-5.68141e-77
0.6545 	-5.65531e-77
0.6552 	-8.73047e-77
0.6559 	-4.64252e-77
0.6566 	-3.90916e-77
0.6573 	-3.88707e-77
0.658 	-3.86498e-77
0.6587 	-3.84288e-77
0.6594 	-3.82079e-77
0.6601 	-6.79332e-77
0.6608 	-3.24605e-77
0.6615 	-2.58837e-77
0.6622 	-2.57078e-77
0.6629 	-2.5532e-77
0.6636 	-2.53561e-77
0.6643 	-2.51802e-77
0.665 	-5.06048e-77
0.6657 	-2.21859e-77
0.6664 	-1.67377e-77
0.6671 	-1.66049e-77
0.6678 	-1.6472e-77
0.6685 	-1.63391e-77
0.6692 	-1.62063e-77
0.6699 	-2.86559e-77
0.6706 	-1.48289e-77
0.6713 	-1.05821e-77
0.672 	-1.04862e-77
0.6727 	-1.03904e-77
0.6734 	-1.02945e-77
0.6741 	-1.01986e-77
0.6748 	-1.5589e-77
0.6755 	-9.69871e-78
0.6762 	-6.75385e-78
0.6769 	-6.48178e-78
0.6776 	-6.41532e-78
0.6783 	-6.34885e-78
0.679 	-6.28239e-78
0.6797 	-8.11315e-78
0.6804 	-6.57405e-78
0.6811 	-4.35771e-78
0.6818 	-3.92557e-78
0.6825 	-3.88112e-78
0.6832 	-3.83667e-78
0.6839 	-3.79222e-78
0.6846 	-4.00902e-78
0.6853 	-4.83304e-78
0.686 	-2.75742e-78
0.6867 	-2.33157e-78
0.6874 	-2.30278e-78
0.6881 	-2.274e-78
0.6888 	-2.24521e-78
0.6895 	-2.21642e-78
0.6902 	-3.36708e-78
0.6909 	-1.71177e-78
0.6916 	-1.35924e-78
0.6923 	-1.34114e-78
0.693 	-1.32303e-78
0.6937 	-1.30493e-78
0.6944 	-1.28682e-78
0.6951 	-2.24706e-78
0.6958 	-1.122e-78
0.6965 	-9.54875e-79
0.6972 	-9.47958e-79
0.6979 	-9.41041e-79
0.6986 	-9.34124e-79
0.6993 	-9.27207e-79
0.7 	-1.85264e-78
