0 	1
0.0007 	1
0.0014 	1
0.0021 	1
0.0028 	1
0.0035 	1
0.0042 	1
0.0049 	1
0.0056 	1
0.0063 	1
0.007 	1
0.0077 	1
0.0084 	1
0.0091 	1
0.0098 	1
0.0105 	1
0.0112 	1
0.0119 	1
0.0126 	1
0.0133 	1
0.014 	1
0.0147 	1
0.0154 	1
0.0161 	1
0.0168 	1
0.0175 	1
0.0182 	1
0.0189 	1
0.0196 	1
0.0203 	1
0.021 	1
0.0217 	1
0.0224 	1
0.0231 	1
0.0238 	1
0.0245 	1
0.0252 	1
0.0259 	1
0.0266 	1
0.0273 	1
0.028 	1
0.0287 	1
0.0294 	1
0.0301 	1
0.0308 	1
0.0315 	1
0.0322 	1
0.0329 	1
0.0336 	1
0.0343 	1
0.035 	1
0.0357 	1
0.0364 	1
0.0371 	1
0.0378 	1
0.0385 	1
0.0392 	1
0.0399 	1
0.0406 	1
0.0413 	1
0.042 	1
0.0427 	1
0.0434 	1
0.0441 	1
0.0448 	1
0.0455 	1
0.0462 	1
0.0469 	1
0.0476 	1
0.0483 	1
0.049 	1
0.0497 	1
0.0504 	1
0.0511 	1
0.0518 	1
0.0525 	1
0.0532 	1
0.0539 	1
0.0546 	1
0.0553 	1
0.056 	1
0.0567 	1
0.0574 	1
0.0581 	1
0.0588 	1
0.0595 	1
0.0602 	1
0.0609 	1
0.0616 	1
0.0623 	1
0.063 	1
0.0637 	1
0.0644 	1
0.0651 	1
0.0658 	1
0.0665 	1
0.0672 	1
0.0679 	1
0.0686 	1
0.0693 	1
0.07 	1
0.0707 	1
0.0714 	1
0.0721 	1
0.0728 	1
0.0735 	1
0.0742 	1
0.0749 	1
0.0756 	1
0.0763 	1
0.077 	1
0.0777 	1
0.0784 	1
0.0791 	1
0.0798 	1
0.0805 	1
0.0812 	1
0.0819 	1
0.0826 	1
0.0833 	1
0.084 	1
0.0847 	1
0.0854 	1
0.0861 	1
0.0868 	1
0.0875 	1
0.0882 	1
0.0889 	1
0.0896 	1
0.0903 	1
0.091 	1
0.0917 	1
0.0924 	1
0.0931 	1
0.0938 	1
0.0945 	1
0.0952 	1
0.0959 	1
0.0966 	1
0.0973 	1
0.098 	1
0.0987 	1
0.0994 	1
0.1001 	1
0.1008 	1
0.1015 	1
0.1022 	1
0.1029 	1
0.1036 	1
0.1043 	1
0.105 	1
0.1057 	1
0.1064 	1
0.1071 	1
0.1078 	1
0.1085 	1
0.1092 	1
0.1099 	1
0.1106 	1
0.1113 	1
0.112 	1
0.1127 	1
0.1134 	1
0.1141 	1
0.1148 	1
0.1155 	1
0.1162 	1
0.1169 	1
0.1176 	1
0.1183 	1
0.119 	1
0.1197 	1
0.1204 	1
0.1211 	1
0.1218 	1
0.1225 	1
0.1232 	1
0.1239 	1
0.1246 	1
0.1253 	1
0.126 	1
0.1267 	1
0.1274 	1
0.1281 	1
0.1288 	1
0.1295 	1
0.1302 	1
0.1309 	1
0.1316 	1
0.1323 	1
0.133 	1
0.1337 	1
0.1344 	1
0.1351 	1
0.1358 	1
0.1365 	1
0.1372 	1
0.1379 	1
0.1386 	1
0.1393 	1
0.14 	1
0.1407 	1
0.1414 	1
0.1421 	1
0.1428 	1
0.1435 	1
0.1442 	1
0.1449 	1
0.1456 	1
0.1463 	1
0.147 	1
0.1477 	1
0.1484 	1
0.1491 	1
0.1498 	1
0.1505 	1
0.1512 	1
0.1519 	1
0.1526 	1
0.1533 	1
0.154 	1
0.1547 	1
0.1554 	1
0.1561 	1
0.1568 	1
0.1575 	1
0.1582 	1
0.1589 	1
0.1596 	1
0.1603 	1
0.161 	1
0.1617 	1
0.1624 	1
0.1631 	1
0.1638 	1
0.1645 	1
0.1652 	1
0.1659 	1
0.1666 	1
0.1673 	1
0.168 	1
0.1687 	1
0.1694 	1
0.1701 	1
0.1708 	1
0.1715 	1
0.1722 	1
0.1729 	1
0.1736 	1
0.1743 	1
0.175 	1
0.1757 	1
0.1764 	1
0.1771 	1
0.1778 	1
0.1785 	1
0.1792 	1
0.1799 	1
0.1806 	1
0.1813 	1
0.182 	1
0.1827 	1
0.1834 	1
0.1841 	1
0.1848 	1
0.1855 	1
0.1862 	1
0.1869 	1
0.1876 	1
0.1883 	1
0.189 	1
0.1897 	1
0.1904 	1
0.1911 	1
0.1918 	1
0.1925 	1
0.1932 	1
0.1939 	1
0.1946 	1
0.1953 	1
0.196 	1
0.1967 	1
0.1974 	1
0.1981 	1
0.1988 	1
0.1995 	1
0.2002 	1
0.2009 	1
0.2016 	1
0.2023 	1
0.203 	1
0.2037 	1
0.2044 	1
0.2051 	1
0.2058 	1
0.2065 	1
0.2072 	1
0.2079 	1
0.2086 	1
0.2093 	1
0.21 	1
0.2107 	1
0.2114 	1
0.2121 	1
0.2128 	1
0.2135 	1
0.2142 	1
0.2149 	1
0.2156 	1
0.2163 	1
0.217 	1
0.2177 	1
0.2184 	1
0.2191 	1
0.2198 	1
0.2205 	1
0.2212 	1
0.2219 	1
0.2226 	1
0.2233 	1
0.224 	1
0.2247 	1
0.2254 	1
0.2261 	1
0.2268 	1
0.2275 	1
0.2282 	1
0.2289 	1
0.2296 	1
0.2303 	1
0.231 	1
0.2317 	1
0.2324 	1
0.2331 	1
0.2338 	1
0.2345 	1
0.2352 	1
0.2359 	1
0.2366 	1
0.2373 	1
0.238 	1
0.2387 	1
0.2394 	1
0.2401 	1
0.2408 	1
0.2415 	1
0.2422 	0.999999
0.2429 	0.999999
0.2436 	0.999999
0.2443 	0.999999
0.245 	0.999998
0.2457 	0.99999
0.2464 	0.999976
0.2471 	0.999963
0.2478 	0.999949
0.2485 	0.999936
0.2492 	0.999923
0.2499 	0.999898
0.2506 	0.999581
0.2513 	0.99898
0.252 	0.998379
0.2527 	0.997778
0.2534 	0.997176
0.2541 	0.996575
0.2548 	0.995886
0.2555 	0.991289
0.2562 	0.981448
0.2569 	0.971602
0.2576 	0.961757
0.2583 	0.951911
0.259 	0.942066
0.2597 	0.93222
0.2604 	0.904448
0.2611 	0.854623
0.2618 	0.804791
0.2625 	0.754956
0.2632 	0.705122
0.2639 	0.655288
0.2646 	0.605454
0.2653 	0.528172
0.266 	0.468936
0.2667 	0.409702
0.2674 	0.350469
0.2681 	0.291236
0.2688 	0.232003
0.2695 	0.17277
0.2702 	0.134577
0.2709 	0.114299
0.2716 	0.0947554
0.2723 	0.0752161
0.273 	0.0556768
0.2737 	0.0361376
0.2744 	0.0165983
0.2751 	0.00628907
0.2758 	0.0052952
0.2765 	0.00438853
0.2772 	0.00348247
0.2779 	0.0025764
0.2786 	0.00167034
0.2793 	0.000764275
0.28 	0.000174984
0.2807 	0.000147324
0.2814 	0.000122318
0.2821 	9.73266e-05
0.2828 	7.23352e-05
0.2835 	4.73438e-05
0.2842 	2.23524e-05
0.2849 	2.69185e-06
0.2856 	2.35269e-06
0.2863 	1.95689e-06
0.287 	1.56125e-06
0.2877 	1.1656e-06
0.2884 	7.6996e-07
0.2891 	3.74316e-07
0.2898 	6.06915e-09
0.2905 	5.61234e-09
0.2912 	4.69035e-09
0.2919 	3.76804e-09
0.2926 	2.84572e-09
0.2933 	1.92339e-09
0.294 	1.00106e-09
0.2947 	7.87352e-11
0.2954 	1.05091e-11
0.2961 	1.05645e-11
0.2968 	1.06196e-11
0.2975 	1.06747e-11
0.2982 	1.07298e-11
0.2989 	1.07849e-11
0.2996 	1.08399e-11
0.3003 	1.08292e-11
0.301 	1.07728e-11
0.3017 	1.07161e-11
0.3024 	1.06593e-11
0.3031 	1.06026e-11
0.3038 	1.05458e-11
0.3045 	1.0489e-11
0.3052 	1.03327e-11
0.3059 	1.00414e-11
0.3066 	9.7479e-12
0.3073 	9.45421e-12
0.308 	9.16051e-12
0.3087 	8.86682e-12
0.3094 	8.57313e-12
0.3101 	8.25115e-12
0.3108 	7.84662e-12
0.3115 	7.44381e-12
0.3122 	7.04103e-12
0.3129 	6.63825e-12
0.3136 	6.23546e-12
0.3143 	5.83268e-12
0.315 	5.45602e-12
0.3157 	5.08139e-12
0.3164 	4.71789e-12
0.3171 	4.35471e-12
0.3178 	3.99154e-12
0.3185 	3.62837e-12
0.3192 	3.26519e-12
0.3199 	2.92796e-12
0.3206 	2.67374e-12
0.3213 	2.43175e-12
0.322 	2.19023e-12
0.3227 	1.94871e-12
0.3234 	1.70719e-12
0.3241 	1.46567e-12
0.3248 	1.23098e-12
0.3255 	1.09419e-12
0.3262 	9.74658e-13
0.3269 	8.55447e-13
0.3276 	7.36261e-13
0.3283 	6.17075e-13
0.329 	4.97888e-13
0.3297 	3.78702e-13
0.3304 	3.17672e-13
0.3311 	2.773e-13
0.3318 	2.37038e-13
0.3325 	1.96808e-13
0.3332 	1.56577e-13
0.3339 	1.16346e-13
0.3346 	7.61155e-14
0.3353 	5.62505e-14
0.336 	4.83024e-14
0.3367 	4.03743e-14
0.3374 	3.24573e-14
0.3381 	2.45403e-14
0.3388 	1.66233e-14
0.3395 	8.70638e-15
0.3402 	4.88438e-15
0.3409 	4.10582e-15
0.3416 	3.39607e-15
0.3423 	2.6878e-15
0.343 	1.97953e-15
0.3437 	1.27125e-15
0.3444 	5.62982e-16
0.3451 	1.83172e-16
0.3458 	1.49442e-16
0.3465 	1.24662e-16
0.3472 	9.99465e-17
0.3479 	7.52311e-17
0.3486 	5.05158e-17
0.3493 	2.58005e-17
0.35 	9.55832e-18
0.3507 	8.34356e-18
0.3514 	7.35778e-18
0.3521 	6.37443e-18
0.3528 	5.39108e-18
0.3535 	4.40772e-18
0.3542 	3.42437e-18
0.3549 	2.64001e-18
0.3556 	2.40245e-18
0.3563 	2.14964e-18
0.357 	1.89731e-18
0.3577 	1.64498e-18
0.3584 	1.39265e-18
0.3591 	1.14032e-18
0.3598 	9.02762e-19
0.3605 	8.21277e-19
0.3612 	7.22738e-19
0.3619 	6.24259e-19
0.3626 	5.25784e-19
0.3633 	4.27309e-19
0.364 	3.28834e-19
0.3647 	2.30359e-19
0.3654 	2.01654e-19
0.3661 	1.7409e-19
0.3668 	1.46499e-19
0.3675 	1.18901e-19
0.3682 	9.13023e-20
0.3689 	6.37041e-20
0.3696 	3.61059e-20
0.3703 	2.75176e-20
0.371 	2.35028e-20
0.3717 	1.94781e-20
0.3724 	1.54479e-20
0.3731 	1.14177e-20
0.3738 	7.38747e-21
0.3745 	3.35725e-21
0.3752 	1.77326e-21
0.3759 	1.5112e-21
0.3766 	1.25211e-21
0.3773 	9.92073e-22
0.378 	7.3204e-22
0.3787 	4.72007e-22
0.3794 	2.11973e-22
0.3801 	7.4433e-23
0.3808 	6.34798e-23
0.3815 	5.35809e-23
0.3822 	4.36227e-23
0.3829 	3.36646e-23
0.3836 	2.37064e-23
0.3843 	1.37483e-23
0.385 	6.63279e-24
0.3857 	5.51073e-24
0.3864 	4.70206e-24
0.3871 	3.88936e-24
0.3878 	3.07667e-24
0.3885 	2.26398e-24
0.3892 	1.45128e-24
0.3899 	7.56087e-25
0.3906 	6.04166e-25
0.3913 	5.11107e-25
0.392 	4.17631e-25
0.3927 	3.24156e-25
0.3934 	2.30681e-25
0.3941 	1.37206e-25
0.3948 	4.84185e-26
0.3955 	3.80984e-26
0.3962 	3.20637e-26
0.3969 	2.59811e-26
0.3976 	1.98949e-26
0.3983 	1.38086e-26
0.399 	7.72239e-27
0.3997 	1.63615e-27
0.4004 	9.42827e-28
0.4011 	7.94684e-28
0.4018 	6.44662e-28
0.4025 	4.94127e-28
0.4032 	3.43592e-28
0.4039 	1.93057e-28
0.4046 	4.25219e-29
0.4053 	7.64595e-30
0.406 	6.4754e-30
0.4067 	5.28325e-30
0.4074 	4.07908e-30
0.4081 	2.87492e-30
0.4088 	1.67076e-30
0.4095 	4.66593e-31
0.4102 	1.98725e-32
0.4109 	1.69152e-32
0.4116 	1.39062e-32
0.4123 	1.08292e-32
0.413 	7.75225e-33
0.4137 	4.67526e-33
0.4144 	1.59827e-33
0.4151 	1.65519e-35
0.4158 	1.41661e-35
0.4165 	1.17613e-35
0.4172 	9.25564e-36
0.4179 	6.74994e-36
0.4186 	4.24424e-36
0.4193 	1.73854e-36
0.42 	9.35869e-38
0.4207 	8.89154e-38
0.4214 	8.65877e-38
0.4221 	8.4193e-38
0.4228 	8.17983e-38
0.4235 	7.94036e-38
0.4242 	7.70089e-38
0.4249 	7.63884e-38
0.4256 	7.3971e-38
0.4263 	7.23971e-38
0.427 	7.07956e-38
0.4277 	6.9194e-38
0.4284 	6.75925e-38
0.4291 	6.59909e-38
0.4298 	6.47831e-38
0.4305 	6.31079e-38
0.4312 	6.07531e-38
0.4319 	5.8361e-38
0.4326 	5.59661e-38
0.4333 	5.35712e-38
0.434 	5.11763e-38
0.4347 	4.87814e-38
0.4354 	4.72896e-38
0.4361 	4.44056e-38
0.4368 	4.14829e-38
0.4375 	3.85495e-38
0.4382 	3.56161e-38
0.4389 	3.26827e-38
0.4396 	2.97494e-38
0.4403 	2.83512e-38
0.441 	2.58886e-38
0.4417 	2.33971e-38
0.4424 	2.08895e-38
0.4431 	1.8382e-38
0.4438 	1.58744e-38
0.4445 	1.33669e-38
0.4452 	1.22834e-38
0.4459 	1.09027e-38
0.4466 	9.53394e-39
0.4473 	8.15121e-39
0.448 	6.76848e-39
0.4487 	5.38575e-39
0.4494 	4.00302e-39
0.4501 	3.32702e-39
0.4508 	2.88568e-39
0.4515 	2.45748e-39
0.4522 	2.02246e-39
0.4529 	1.58744e-39
0.4536 	1.15241e-39
0.4543 	7.17386e-40
0.455 	4.4667e-40
0.4557 	3.83391e-40
0.4564 	3.22002e-40
0.4571 	2.59088e-40
0.4578 	1.96174e-40
0.4585 	1.3326e-40
0.4592 	7.03459e-41
0.4599 	2.02184e-41
0.4606 	1.80343e-41
0.4613 	1.51311e-41
0.462 	1.21161e-41
0.4627 	9.10107e-42
0.4634 	6.08606e-42
0.4641 	3.07105e-42
0.4648 	2.13812e-43
0.4655 	1.99341e-43
0.4662 	1.68073e-43
0.4669 	1.35234e-43
0.4676 	1.02273e-43
0.4683 	6.9313e-44
0.469 	3.63526e-44
0.4697 	3.3922e-45
0.4704 	3.59531e-46
0.4711 	3.04926e-46
0.4718 	2.47349e-46
0.4725 	1.88962e-46
0.4732 	1.30575e-46
0.4739 	7.21874e-47
0.4746 	1.38001e-47
0.4753 	7.90044e-50
0.476 	6.74156e-50
0.4767 	5.51762e-50
0.4774 	4.25753e-50
0.4781 	2.99744e-50
0.4788 	1.73735e-50
0.4795 	4.77257e-51
0.4802 	4.74421e-54
0.4809 	4.06098e-54
0.4816 	3.35051e-54
0.4823 	2.6096e-54
0.483 	1.86869e-54
0.4837 	1.12777e-54
0.4844 	3.86856e-55
0.4851 	2.81045e-58
0.4858 	2.40951e-58
0.4865 	2.00306e-58
0.4872 	1.57373e-58
0.4879 	1.14439e-58
0.4886 	7.15061e-59
0.4893 	2.85728e-59
0.49 	1.64957e-62
0.4907 	1.41607e-62
0.4914 	1.1854e-62
0.4921 	9.389e-63
0.4928 	6.924e-63
0.4935 	4.45901e-63
0.4942 	1.99402e-63
0.4949 	1.01177e-66
0.4956 	9.1539e-67
0.4963 	7.87873e-67
0.497 	6.49442e-67
0.4977 	5.1101e-67
0.4984 	3.72579e-67
0.4991 	2.34148e-67
0.4998 	1.03007e-67
0.5005 	1.02657e-67
0.5012 	1.03429e-67
0.5019 	1.0393e-67
0.5026 	1.0441e-67
0.5033 	1.0489e-67
0.504 	1.0537e-67
0.5047 	1.0585e-67
0.5054 	1.05991e-67
0.5061 	1.06431e-67
0.5068 	1.06722e-67
0.5075 	1.06971e-67
0.5082 	1.07221e-67
0.5089 	1.0747e-67
0.5096 	1.0772e-67
0.5103 	1.07687e-67
0.511 	1.06989e-67
0.5117 	1.06426e-67
0.5124 	1.05936e-67
0.5131 	1.05447e-67
0.5138 	1.04957e-67
0.5145 	1.04468e-67
0.5152 	1.04861e-67
0.5159 	1.01758e-67
0.5166 	9.96082e-68
0.5173 	9.78987e-68
0.518 	9.61893e-68
0.5187 	9.44799e-68
0.5194 	9.27705e-68
0.5201 	9.40763e-68
0.5208 	8.77617e-68
0.5215 	8.34373e-68
0.5222 	8.02757e-68
0.5229 	7.71141e-68
0.5236 	7.39526e-68
0.5243 	7.0791e-68
0.525 	7.16009e-68
0.5257 	6.44069e-68
0.5264 	5.86628e-68
0.5271 	5.48141e-68
0.5278 	5.09654e-68
0.5285 	4.71167e-68
0.5292 	4.32679e-68
0.5299 	4.11088e-68
0.5306 	3.72714e-68
0.5313 	3.20798e-68
0.532 	2.89075e-68
0.5327 	2.57351e-68
0.5334 	2.25628e-68
0.5341 	1.93904e-68
0.5348 	1.64525e-68
0.5355 	1.5236e-68
0.5362 	1.23638e-68
0.5369 	1.06363e-68
0.5376 	8.99676e-69
0.5383 	7.35727e-69
0.539 	5.71778e-69
0.5397 	4.07829e-69
0.5404 	3.71222e-69
0.5411 	2.87992e-69
0.5418 	2.34487e-69
0.5425 	1.89088e-69
0.5432 	1.43689e-69
0.5439 	9.82907e-70
0.5446 	5.28921e-70
0.5453 	4.08906e-70
0.546 	3.08663e-70
0.5467 	2.39678e-70
0.5474 	1.88058e-70
0.5481 	1.36437e-70
0.5488 	8.48169e-71
0.5495 	3.31965e-71
0.5502 	1.33639e-71
0.5509 	9.91343e-72
0.5516 	7.31442e-72
0.5523 	5.64901e-72
0.553 	3.98359e-72
0.5537 	2.31818e-72
0.5544 	6.52766e-73
0.5551 	-2.53102e-73
0.5558 	-5.01246e-73
0.5565 	-7.20388e-73
0.5572 	-7.35064e-73
0.5579 	-7.4974e-73
0.5586 	-7.64417e-73
0.5593 	-7.79093e-73
0.56 	-8.76665e-73
0.5607 	-1.12802e-72
0.5614 	-1.5229e-72
0.5621 	-1.53515e-72
0.5628 	-1.5474e-72
0.5635 	-1.55966e-72
0.5642 	-1.57191e-72
0.5649 	-1.66848e-72
0.5656 	-1.97756e-72
0.5663 	-2.66272e-72
0.567 	-2.68006e-72
0.5677 	-2.69741e-72
0.5684 	-2.71475e-72
0.5691 	-2.7321e-72
0.5698 	-2.78031e-72
0.5705 	-3.16427e-72
0.5712 	-4.21589e-72
0.5719 	-4.31441e-72
0.5726 	-4.33962e-72
0.5733 	-4.36482e-72
0.574 	-4.39003e-72
0.5747 	-4.41523e-72
0.5754 	-4.77709e-72
0.5761 	-6.19687e-72
0.5768 	-6.52842e-72
0.5775 	-6.56319e-72
0.5782 	-6.59795e-72
0.5789 	-6.63272e-72
0.5796 	-6.66749e-72
0.5803 	-6.87453e-72
0.581 	-8.66308e-72
0.5817 	-9.33066e-72
0.5824 	-9.37548e-72
0.5831 	-9.42031e-72
0.5838 	-9.46513e-72
0.5845 	-9.50996e-72
0.5852 	-9.63869e-72
0.5859 	-1.1546e-71
0.5866 	-1.26145e-71
0.5873 	-1.2668e-71
0.588 	-1.27216e-71
0.5887 	-1.27752e-71
0.5894 	-1.28288e-71
0.5901 	-1.344e-71
0.5908 	-1.46949e-71
0.5915 	-1.61445e-71
0.5922 	-1.62033e-71
0.5929 	-1.62622e-71
0.5936 	-1.6321e-71
0.5943 	-1.63799e-71
0.595 	-1.76908e-71
0.5957 	-1.7885e-71
0.5964 	-1.95781e-71
0.5971 	-1.96368e-71
0.5978 	-1.96955e-71
0.5985 	-1.97542e-71
0.5992 	-1.98129e-71
0.5999 	-2.0698e-71
0.6006 	-2.08424e-71
0.6013 	-2.25232e-71
0.602 	-2.25752e-71
0.6027 	-2.26272e-71
0.6034 	-2.26792e-71
0.6041 	-2.27313e-71
0.6048 	-2.29778e-71
0.6055 	-2.32834e-71
0.6062 	-2.45314e-71
0.6069 	-2.46567e-71
0.6076 	-2.46956e-71
0.6083 	-2.47346e-71
0.609 	-2.47735e-71
0.6097 	-2.48125e-71
0.6104 	-2.49587e-71
0.6111 	-2.54965e-71
0.6118 	-2.56283e-71
0.6125 	-2.56494e-71
0.6132 	-2.56704e-71
0.6139 	-2.56915e-71
0.6146 	-2.57125e-71
0.6153 	-2.56962e-71
0.616 	-2.54755e-71
0.6167 	-2.53972e-71
0.6174 	-2.53981e-71
0.6181 	-2.5399e-71
0.6188 	-2.53999e-71
0.6195 	-2.54008e-71
0.6202 	-2.55944e-71
0.6209 	-2.45105e-71
0.6216 	-2.40415e-71
0.6223 	-2.4023e-71
0.623 	-2.40044e-71
0.6237 	-2.39859e-71
0.6244 	-2.39673e-71
0.6251 	-2.48429e-71
0.6258 	-2.27391e-71
0.6265 	-2.17811e-71
0.6272 	-2.17464e-71
0.6279 	-2.17117e-71
0.6286 	-2.1677e-71
0.6293 	-2.16423e-71
0.63 	-2.30323e-71
0.6307 	-2.03657e-71
0.6314 	-1.89219e-71
0.6321 	-1.8876e-71
0.6328 	-1.88301e-71
0.6335 	-1.87842e-71
0.6342 	-1.87384e-71
0.6349 	-1.93662e-71
0.6356 	-1.76264e-71
0.6363 	-1.57911e-71
0.637 	-1.57397e-71
0.6377 	-1.56882e-71
0.6384 	-1.56368e-71
0.6391 	-1.55853e-71
0.6398 	-1.56429e-71
0.6405 	-1.47555e-71
0.6412 	-1.28169e-71
0.6419 	-1.26303e-71
0.6426 	-1.25784e-71
0.6433 	-1.25266e-71
0.644 	-1.24748e-71
0.6447 	-1.24229e-71
0.6454 	-1.19568e-71
0.6461 	-1.01872e-71
0.6468 	-9.77011e-72
0.6475 	-9.7219e-72
0.6482 	-9.67369e-72
0.6489 	-9.62548e-72
0.6496 	-9.57727e-72
0.6503 	-9.38601e-72
0.651 	-7.86667e-72
0.6517 	-7.29707e-72
0.6524 	-7.25509e-72
0.6531 	-7.21312e-72
0.6538 	-7.17115e-72
0.6545 	-7.12918e-72
0.6552 	-7.14717e-72
0.6559 	-5.90584e-72
0.6566 	-5.27005e-72
0.6573 	-5.23551e-72
0.658 	-5.20097e-72
0.6587 	-5.16644e-72
0.6594 	-5.1319e-72
0.6601 	-5.27491e-72
0.6608 	-4.31291e-72
0.6615 	-3.68562e-72
0.6622 	-3.65859e-72
0.6629 	-3.63155e-72
0.6636 	-3.60452e-72
0.6643 	-3.57749e-72
0.665 	-3.76463e-72
0.6657 	-3.06531e-72
0.6664 	-2.49924e-72
0.6671 	-2.47901e-72
0.6678 	-2.45878e-72
0.6685 	-2.43855e-72
0.6692 	-2.41832e-72
0.6699 	-2.47715e-72
0.6706 	-2.12127e-72
0.6713 	-1.64524e-72
0.672 	-1.63072e-72
0.6727 	-1.6162e-72
0.6734 	-1.60167e-72
0.6741 	-1.58715e-72
0.6748 	-1.58226e-72
0.6755 	-1.42998e-72
0.6762 	-1.07707e-72
0.6769 	-1.04255e-72
0.6776 	-1.03251e-72
0.6783 	-1.02247e-72
0.679 	-1.01244e-72
0.6797 	-1.0024e-72
0.6804 	-9.39417e-73
0.6811 	-7.04097e-73
0.6818 	-6.48413e-73
0.6825 	-6.4172e-73
0.6832 	-6.35027e-73
0.6839 	-6.28334e-73
0.6846 	-6.21641e-73
0.6853 	-6.01664e-73
0.686 	-4.49698e-73
0.6867 	-3.9265e-73
0.6874 	-3.88333e-73
0.6881 	-3.84017e-73
0.6888 	-3.79701e-73
0.6895 	-3.75385e-73
0.6902 	-3.74882e-73
0.6909 	-2.80602e-73
0.6916 	-2.31652e-73
0.6923 	-2.28955e-73
0.693 	-2.26259e-73
0.6937 	-2.23562e-73
0.6944 	-2.20865e-73
0.6951 	-2.25628e-73
0.6958 	-1.88923e-73
0.6965 	-1.65247e-73
0.6972 	-1.64222e-73
0.6979 	-1.63197e-73
0.6986 	-1.62172e-73
0.6993 	-1.61147e-73
0.7 	-1.69218e-73
