0 	1
0.0007 	1
0.0014 	1
0.0021 	1
0.0028 	1
0.0035 	1
0.0042 	1
0.0049 	1
0.0056 	1
0.0063 	1
0.007 	1
0.0077 	1
0.0084 	1
0.0091 	1
0.0098 	1
0.0105 	1
0.0112 	1
0.0119 	1
0.0126 	1
0.0133 	1
0.014 	1
0.0147 	1
0.0154 	1
0.0161 	1
0.0168 	1
0.0175 	1
0.0182 	1
0.0189 	1
0.0196 	1
0.0203 	1
0.021 	1
0.0217 	1
0.0224 	1
0.0231 	1
0.0238 	1
0.0245 	1
0.0252 	1
0.0259 	1
0.0266 	1
0.0273 	1
0.028 	1
0.0287 	1
0.0294 	1
0.0301 	1
0.0308 	1
0.0315 	1
0.0322 	1
0.0329 	1
0.0336 	1
0.0343 	1
0.035 	1
0.0357 	1
0.0364 	1
0.0371 	1
0.0378 	1
0.0385 	1
0.0392 	1
0.0399 	1
0.0406 	1
0.0413 	1
0.042 	1
0.0427 	1
0.0434 	1
0.0441 	1
0.0448 	1
0.0455 	1
0.0462 	1
0.0469 	1
0.0476 	1
0.0483 	1
0.049 	1
0.0497 	1
0.0504 	1
0.0511 	1
0.0518 	1
0.0525 	1
0.0532 	1
0.0539 	1
0.0546 	1
0.0553 	1
0.056 	1
0.0567 	1
0.0574 	1
0.0581 	1
0.0588 	1
0.0595 	1
0.0602 	1
0.0609 	1
0.0616 	1
0.0623 	1
0.063 	1
0.0637 	1
0.0644 	1
0.0651 	1
0.0658 	1
0.0665 	1
0.0672 	1
0.0679 	1
0.0686 	1
0.0693 	1
0.07 	1
0.0707 	1
0.0714 	1
0.0721 	1
0.0728 	1
0.0735 	1
0.0742 	1
0.0749 	1
0.0756 	1
0.0763 	1
0.077 	1
0.0777 	1
0.0784 	1
0.0791 	1
0.0798 	1
0.0805 	1
0.0812 	1
0.0819 	1
0.0826 	1
0.0833 	1
0.084 	1
0.0847 	1
0.0854 	1
0.0861 	1
0.0868 	1
0.0875 	1
0.0882 	1
0.0889 	1
0.0896 	1
0.0903 	1
0.091 	1
0.0917 	1
0.0924 	1
0.0931 	1
0.0938 	1
0.0945 	1
0.0952 	1
0.0959 	1
0.0966 	1
0.0973 	1
0.098 	1
0.0987 	1
0.0994 	1
0.1001 	1
0.1008 	1
0.1015 	1
0.1022 	1
0.1029 	1
0.1036 	1
0.1043 	1
0.105 	1
0.1057 	1
0.1064 	1
0.1071 	1
0.1078 	1
0.1085 	1
0.1092 	1
0.1099 	1
0.1106 	1
0.1113 	1
0.112 	1
0.1127 	1
0.1134 	1
0.1141 	1
0.1148 	1
0.1155 	1
0.1162 	1
0.1169 	1
0.1176 	1
0.1183 	1
0.119 	1
0.1197 	1
0.1204 	1
0.1211 	1
0.1218 	1
0.1225 	1
0.1232 	1
0.1239 	1
0.1246 	1
0.1253 	1
0.126 	1
0.1267 	1
0.1274 	1
0.1281 	1
0.1288 	1
0.1295 	1
0.1302 	1
0.1309 	1
0.1316 	1
0.1323 	1
0.133 	1
0.1337 	1
0.1344 	1
0.1351 	1
0.1358 	1
0.1365 	1
0.1372 	1
0.1379 	1
0.1386 	1
0.1393 	1
0.14 	1
0.1407 	1
0.1414 	1
0.1421 	1
0.1428 	1
0.1435 	1
0.1442 	1
0.1449 	1
0.1456 	1
0.1463 	1
0.147 	1
0.1477 	1
0.1484 	1
0.1491 	1
0.1498 	1
0.1505 	1
0.1512 	1
0.1519 	1
0.1526 	1
0.1533 	1
0.154 	1
0.1547 	1
0.1554 	1
0.1561 	1
0.1568 	1
0.1575 	1
0.1582 	1
0.1589 	1
0.1596 	1
0.1603 	1
0.161 	1
0.1617 	1
0.1624 	1
0.1631 	1
0.1638 	1
0.1645 	1
0.1652 	1
0.1659 	1
0.1666 	1
0.1673 	1
0.168 	1
0.1687 	1
0.1694 	1
0.1701 	1
0.1708 	1
0.1715 	1
0.1722 	1
0.1729 	1
0.1736 	1
0.1743 	1
0.175 	1
0.1757 	1
0.1764 	1
0.1771 	1
0.1778 	1
0.1785 	1
0.1792 	1
0.1799 	1
0.1806 	1
0.1813 	1
0.182 	1
0.1827 	1
0.1834 	1
0.1841 	1
0.1848 	1
0.1855 	1
0.1862 	1
0.1869 	1
0.1876 	1
0.1883 	1
0.189 	1
0.1897 	1
0.1904 	1
0.1911 	1
0.1918 	1
0.1925 	1
0.1932 	1
0.1939 	1
0.1946 	1
0.1953 	1
0.196 	1
0.1967 	1
0.1974 	1
0.1981 	1
0.1988 	1
0.1995 	1
0.2002 	1
0.2009 	1
0.2016 	1
0.2023 	1
0.203 	1
0.2037 	1
0.2044 	1
0.2051 	1
0.2058 	1
0.2065 	1
0.2072 	1
0.2079 	1
0.2086 	1
0.2093 	1
0.21 	1
0.2107 	1
0.2114 	1
0.2121 	1
0.2128 	1
0.2135 	1
0.2142 	1
0.2149 	1
0.2156 	1
0.2163 	1
0.217 	1
0.2177 	1
0.2184 	1
0.2191 	1
0.2198 	0.999999
0.2205 	0.999999
0.2212 	0.999999
0.2219 	0.999996
0.2226 	0.999992
0.2233 	0.999992
0.224 	0.99999
0.2247 	0.999987
0.2254 	0.999986
0.2261 	0.999989
0.2268 	0.999928
0.2275 	0.999849
0.2282 	0.999827
0.2289 	0.999806
0.2296 	0.999721
0.2303 	0.999699
0.231 	0.99976
0.2317 	0.998746
0.2324 	0.997134
0.2331 	0.996456
0.2338 	0.996266
0.2345 	0.994522
0.2352 	0.993626
0.2359 	0.994849
0.2366 	0.985965
0.2373 	0.966974
0.238 	0.956112
0.2387 	0.954656
0.2394 	0.934426
0.2401 	0.917414
0.2408 	0.928377
0.2415 	0.918161
0.2422 	0.869821
0.2429 	0.831187
0.2436 	0.81303
0.2443 	0.748278
0.245 	0.670818
0.2457 	0.622988
0.2464 	0.574989
0.2471 	0.526369
0.2478 	0.478003
0.2485 	0.430799
0.2492 	0.38309
0.2499 	0.335101
0.2506 	0.261899
0.2513 	0.188596
0.252 	0.168614
0.2527 	0.147537
0.2534 	0.0983864
0.2541 	0.0779462
0.2548 	0.0862166
0.2555 	0.0701051
0.2562 	0.0442409
0.2569 	0.0402563
0.2576 	0.0379547
0.2583 	0.018673
0.259 	0.00582461
0.2597 	0.00812343
0.2604 	0.00754867
0.2611 	0.00481872
0.2618 	0.00419128
0.2625 	0.00413725
0.2632 	0.00215536
0.2639 	0.000116138
0.2646 	0.000179408
0.2653 	0.000187795
0.266 	0.000123008
0.2667 	9.97514e-05
0.2674 	9.95672e-05
0.2681 	6.01287e-05
0.2688 	3.65361e-07
0.2695 	5.90726e-07
0.2702 	6.87144e-07
0.2709 	4.61191e-07
0.2716 	3.48189e-07
0.2723 	3.48136e-07
0.273 	2.42084e-07
0.2737 	1.62715e-08
0.2744 	2.23878e-10
0.2751 	2.8659e-10
0.2758 	1.9882e-10
0.2765 	1.424e-10
0.2772 	1.4241e-10
0.2779 	1.13664e-10
0.2786 	2.58849e-11
0.2793 	7.07702e-12
0.28 	7.07912e-12
0.2807 	7.08324e-12
0.2814 	7.0808e-12
0.2821 	7.05432e-12
0.2828 	7.03205e-12
0.2835 	7.02823e-12
0.2842 	7.00495e-12
0.2849 	6.97086e-12
0.2856 	6.96201e-12
0.2863 	6.9514e-12
0.287 	6.86326e-12
0.2877 	6.77764e-12
0.2884 	6.74709e-12
0.2891 	6.67504e-12
0.2898 	6.5615e-12
0.2905 	6.49085e-12
0.2912 	6.43736e-12
0.2919 	6.26964e-12
0.2926 	6.09315e-12
0.2933 	5.98994e-12
0.294 	5.85095e-12
0.2947 	5.6332e-12
0.2954 	5.45063e-12
0.2961 	5.29444e-12
0.2968 	5.06837e-12
0.2975 	4.82324e-12
0.2982 	4.62216e-12
0.2989 	4.41597e-12
0.2996 	4.13997e-12
0.3003 	3.86544e-12
0.301 	3.5929e-12
0.3017 	3.34319e-12
0.3024 	3.10616e-12
0.3031 	2.85787e-12
0.3038 	2.60514e-12
0.3045 	2.38497e-12
0.3052 	2.14299e-12
0.3059 	1.8465e-12
0.3066 	1.62318e-12
0.3073 	1.47303e-12
0.308 	1.28256e-12
0.3087 	1.04768e-12
0.3094 	9.48101e-13
0.3101 	8.45844e-13
0.3108 	6.65084e-13
0.3115 	5.28806e-13
0.3122 	4.72595e-13
0.3129 	3.90368e-13
0.3136 	2.56294e-13
0.3143 	2.19756e-13
0.315 	2.09819e-13
0.3157 	1.55996e-13
0.3164 	1.11372e-13
0.3171 	1.00473e-13
0.3178 	8.36062e-14
0.3185 	4.16623e-14
0.3192 	2.7234e-14
0.3199 	2.80922e-14
0.3206 	2.19374e-14
0.3213 	1.50571e-14
0.322 	1.394e-14
0.3227 	1.25671e-14
0.3234 	6.37122e-15
0.3241 	3.27092e-15
0.3248 	3.26621e-15
0.3255 	2.80392e-15
0.3262 	2.1586e-15
0.3269 	1.97325e-15
0.3276 	1.82329e-15
0.3283 	1.31648e-15
0.329 	9.50143e-16
0.3297 	9.01339e-16
0.3304 	8.01177e-16
0.3311 	6.62497e-16
0.3318 	5.94022e-16
0.3325 	5.44694e-16
0.3332 	4.4667e-16
0.3339 	3.52907e-16
0.3346 	3.29121e-16
0.3353 	2.90503e-16
0.336 	2.32108e-16
0.3367 	1.99095e-16
0.3374 	1.80182e-16
0.3381 	1.4408e-16
0.3388 	1.00468e-16
0.3395 	9.34201e-17
0.3402 	8.25742e-17
0.3409 	6.22333e-17
0.3416 	4.94483e-17
0.3423 	4.4219e-17
0.343 	3.37909e-17
0.3437 	1.77962e-17
0.3444 	1.58014e-17
0.3451 	1.44536e-17
0.3458 	1.05271e-17
0.3465 	7.71002e-18
0.3472 	6.88997e-18
0.3479 	5.27508e-18
0.3486 	2.12455e-18
0.3493 	1.40922e-18
0.35 	1.35803e-18
0.3507 	9.90433e-19
0.3514 	6.86693e-19
0.3521 	6.17096e-19
0.3528 	5.01524e-19
0.3535 	2.01141e-19
0.3542 	9.18365e-20
0.3549 	8.86858e-20
0.3556 	6.85394e-20
0.3563 	4.68592e-20
0.357 	4.2064e-20
0.3577 	3.6485e-20
0.3584 	1.80262e-20
0.3591 	8.63017e-21
0.3598 	8.29681e-21
0.3605 	6.72944e-21
0.3612 	4.66846e-21
0.3619 	4.0749e-21
0.3626 	3.59422e-21
0.3633 	2.06701e-21
0.364 	1.00567e-21
0.3647 	9.56664e-22
0.3654 	7.97096e-22
0.3661 	5.54608e-22
0.3668 	4.58258e-22
0.3675 	4.01764e-22
0.3682 	2.40863e-22
0.3689 	8.91517e-23
0.3696 	8.31105e-23
0.3703 	7.03881e-23
0.371 	4.87573e-23
0.3717 	3.78651e-23
0.3724 	3.29387e-23
0.3731 	2.03325e-23
0.3738 	4.44151e-24
0.3745 	4.01585e-24
0.3752 	3.41778e-24
0.3759 	2.38866e-24
0.3766 	1.74986e-24
0.3773 	1.50136e-24
0.378 	9.84978e-25
0.3787 	1.8981e-25
0.3794 	1.16952e-25
0.3801 	9.81645e-26
0.3808 	7.04278e-26
0.3815 	4.95903e-26
0.3822 	4.11714e-26
0.3829 	2.8778e-26
0.3836 	8.9448e-27
0.3843 	4.19773e-27
0.385 	3.56505e-27
0.3857 	2.66514e-27
0.3864 	1.87589e-27
0.3871 	1.4924e-27
0.3878 	1.07637e-27
0.3885 	5.35228e-28
0.3892 	3.22904e-28
0.3899 	2.93257e-28
0.3906 	2.34671e-28
0.3913 	1.73174e-28
0.392 	1.3654e-28
0.3927 	1.00464e-28
0.3934 	7.24658e-29
0.3941 	5.77675e-29
0.3948 	5.63687e-29
0.3955 	4.88133e-29
0.3962 	3.87951e-29
0.3969 	3.13328e-29
0.3976 	2.40671e-29
0.3983 	2.09064e-29
0.399 	1.90803e-29
0.3997 	1.90376e-29
0.4004 	1.73637e-29
0.4011 	1.44666e-29
0.4018 	1.1896e-29
0.4025 	9.41443e-30
0.4032 	8.34316e-30
0.4039 	7.76015e-30
0.4046 	7.51646e-30
0.4053 	6.93076e-30
0.406 	5.88905e-30
0.4067 	4.85062e-30
0.4074 	3.814e-30
0.4081 	3.25232e-30
0.4088 	2.95974e-30
0.4095 	2.67839e-30
0.4102 	2.37093e-30
0.4109 	1.99819e-30
0.4116 	1.62398e-30
0.4123 	1.24829e-30
0.413 	9.89976e-31
0.4137 	8.50333e-31
0.4144 	7.09573e-31
0.4151 	5.73136e-31
0.4158 	4.63146e-31
0.4165 	3.60582e-31
0.4172 	2.71385e-31
0.4179 	1.95998e-31
0.4186 	1.45657e-31
0.4193 	1.11714e-31
0.42 	8.22435e-32
0.4207 	6.2552e-32
0.4214 	4.47586e-32
0.4221 	3.39251e-32
0.4228 	2.31437e-32
0.4235 	1.25539e-32
0.4242 	7.63126e-33
0.4249 	5.85706e-33
0.4256 	4.27402e-33
0.4263 	2.79641e-33
0.427 	2.27518e-33
0.4277 	1.71724e-33
0.4284 	6.84293e-34
0.4291 	1.64147e-34
0.4298 	1.56799e-34
0.4305 	1.22498e-34
0.4312 	7.74161e-35
0.4319 	6.76974e-35
0.4326 	6.06989e-35
0.4333 	2.51152e-35
0.434 	9.4715e-37
0.4347 	1.20453e-36
0.4354 	1.09234e-36
0.4361 	7.02966e-37
0.4368 	6.06394e-37
0.4375 	5.89674e-37
0.4382 	2.93148e-37
0.4389 	1.17358e-39
0.4396 	1.75792e-39
0.4403 	1.82531e-39
0.441 	1.20342e-39
0.4417 	9.78138e-40
0.4424 	9.73197e-40
0.4431 	5.72897e-40
0.4438 	2.48883e-43
0.4445 	3.77287e-43
0.4452 	4.30171e-43
0.4459 	2.94249e-43
0.4466 	2.15228e-43
0.4473 	1.93106e-43
0.448 	1.2495e-43
0.4487 	1.15667e-44
0.4494 	4.47833e-45
0.4501 	5.21089e-45
0.4508 	3.80971e-45
0.4515 	2.41759e-45
0.4522 	1.04179e-45
0.4529 	1.47765e-46
0.4536 	1.00685e-46
0.4543 	1.03574e-46
0.455 	1.20091e-46
0.4557 	8.85742e-47
0.4564 	5.73497e-47
0.4571 	2.71981e-47
0.4578 	3.27979e-48
0.4585 	1.3668e-48
0.4592 	6.47515e-49
0.4599 	5.91398e-49
0.4606 	4.48902e-49
0.4613 	2.93918e-49
0.462 	1.63754e-49
0.4627 	4.17231e-50
0.4634 	1.46539e-50
0.4641 	9.68309e-52
0.4648 	6.66415e-52
0.4655 	4.65202e-52
0.4662 	3.04261e-52
0.4669 	2.02402e-52
0.4676 	1.05088e-52
0.4683 	4.04056e-53
0.469 	2.11144e-55
0.4697 	1.49056e-55
0.4704 	1.02559e-55
0.4711 	6.7754e-56
0.4718 	4.92719e-56
0.4725 	3.52414e-56
0.4732 	1.60931e-56
0.4739 	1.1906e-59
0.4746 	1.00919e-59
0.4753 	7.93304e-60
0.476 	5.31464e-60
0.4767 	3.96615e-60
0.4774 	3.32317e-60
0.4781 	1.82007e-60
0.4788 	5.44065e-64
0.4795 	4.62569e-64
0.4802 	3.70953e-64
0.4809 	2.54041e-64
0.4816 	1.81182e-64
0.4823 	1.52375e-64
0.483 	9.36214e-65
0.4837 	6.26452e-66
0.4844 	2.1294e-68
0.4851 	1.73432e-68
0.4858 	1.21151e-68
0.4865 	8.28986e-69
0.4872 	6.98991e-69
0.4879 	4.73079e-69
0.4886 	8.35789e-70
0.4893 	1.00844e-72
0.49 	8.3316e-73
0.4907 	5.92513e-73
0.4914 	3.90554e-73
0.4921 	3.30443e-73
0.4928 	2.43217e-73
0.4935 	6.40439e-74
0.4942 	-3.62732e-77
0.4949 	-1.76104e-76
0.4956 	-9.28587e-77
0.4963 	1.87596e-77
0.497 	1.58983e-77
0.4977 	1.25487e-77
0.4984 	4.00109e-78
0.4991 	-2.25516e-76
0.4998 	-6.76001e-76
0.5005 	-4.83255e-76
0.5012 	-3.3217e-77
0.5019 	-1.19243e-78
0.5026 	-1.32232e-78
0.5033 	-1.56603e-78
0.504 	-3.06735e-76
0.5047 	-1.16076e-75
0.5054 	-1.03909e-75
0.5061 	-1.85661e-76
0.5068 	-2.90954e-78
0.5075 	-3.07015e-78
0.5082 	-3.3668e-78
0.5089 	-2.80155e-76
0.5096 	-1.57062e-75
0.5103 	-1.75527e-75
0.511 	-4.65497e-76
0.5117 	-4.98583e-78
0.5124 	-5.17511e-78
0.5131 	-5.48603e-78
0.5138 	-1.27468e-76
0.5145 	-1.83035e-75
0.5152 	-2.56037e-75
0.5159 	-8.58192e-76
0.5166 	-7.21883e-78
0.5173 	-7.44369e-78
0.518 	-7.73882e-78
0.5187 	-8.09928e-78
0.5194 	-1.89793e-75
0.5201 	-3.35171e-75
0.5208 	-1.31716e-75
0.5215 	-9.31755e-78
0.5222 	-9.55477e-78
0.5229 	-9.81203e-78
0.5236 	-1.01025e-77
0.5243 	-1.78005e-75
0.525 	-4.03262e-75
0.5257 	-1.78049e-75
0.5264 	-1.10092e-77
0.5271 	-1.12203e-77
0.5278 	-1.14255e-77
0.5285 	-1.16117e-77
0.5292 	-1.51657e-75
0.5299 	-3.85752e-75
0.5306 	-2.18563e-75
0.5313 	-1.2125e-77
0.532 	-1.22733e-77
0.5327 	-1.24149e-77
0.5334 	-1.24903e-77
0.5341 	-1.16573e-75
0.5348 	-3.47213e-75
0.5355 	-2.48371e-75
0.5362 	-1.77361e-76
0.5369 	-1.26772e-77
0.5376 	-1.27349e-77
0.5383 	-1.27195e-77
0.539 	-7.90827e-76
0.5397 	-2.96956e-75
0.5404 	-2.65826e-75
0.5411 	-4.79433e-76
0.5418 	-1.2531e-77
0.5425 	-1.2515e-77
0.5432 	-1.24423e-77
0.5439 	-4.40116e-76
0.5446 	-2.43624e-75
0.5453 	-2.72132e-75
0.546 	-7.25015e-76
0.5467 	-1.2016e-77
0.5474 	-1.19621e-77
0.5481 	-1.18607e-77
0.5488 	-1.39644e-76
0.5495 	-1.93024e-75
0.5502 	-2.69757e-75
0.5509 	-9.06749e-76
0.5516 	-1.13092e-77
0.5523 	-1.12437e-77
0.553 	-1.11381e-77
0.5537 	-1.09963e-77
0.5544 	-1.48232e-75
0.5551 	-2.61409e-75
0.5558 	-1.02933e-75
0.5565 	-1.05462e-77
0.5572 	-1.04882e-77
0.5579 	-1.03983e-77
0.5586 	-1.02571e-77
0.5593 	-1.10347e-75
0.56 	-2.49488e-75
0.5607 	-1.10326e-75
0.5614 	-9.83658e-78
0.5621 	-9.80838e-78
0.5628 	-9.75636e-78
0.5635 	-9.62929e-78
0.5642 	-7.92744e-76
0.5649 	-2.01099e-75
0.5656 	-1.14067e-75
0.5663 	-9.28768e-78
0.567 	-9.31336e-78
0.5677 	-9.32649e-78
0.5684 	-9.22543e-78
0.5691 	-5.42854e-76
0.5698 	-1.61021e-75
0.5705 	-1.15271e-75
0.5712 	-8.52593e-77
0.5719 	-9.11146e-78
0.5726 	-9.21665e-78
0.5733 	-9.15934e-78
0.574 	-3.43863e-76
0.5747 	-1.28115e-75
0.5754 	-1.14726e-75
0.5761 	-2.0999e-76
0.5768 	-9.31297e-78
0.5775 	-9.52513e-78
0.5782 	-9.5472e-78
0.5789 	-1.86065e-76
0.5796 	-1.00989e-75
0.5803 	-1.12764e-75
0.581 	-3.03952e-76
0.5817 	-9.9884e-78
0.5824 	-1.03161e-77
0.5831 	-1.04374e-77
0.5838 	-6.19935e-77
0.5845 	-7.83503e-76
0.5852 	-1.09279e-75
0.5859 	-3.71523e-76
0.5866 	-1.10948e-77
0.5873 	-1.15042e-77
0.588 	-1.17221e-77
0.5887 	-1.1771e-77
0.5894 	-5.92502e-76
0.5901 	-1.03926e-75
0.5908 	-4.14141e-76
0.5915 	-1.24298e-77
0.5922 	-1.28421e-77
0.5929 	-1.31138e-77
0.5936 	-1.31647e-77
0.5943 	-4.31594e-76
0.595 	-9.64126e-76
0.5957 	-4.31828e-76
0.5964 	-1.3662e-77
0.5971 	-1.39777e-77
0.5978 	-1.42213e-77
0.5985 	-1.42448e-77
0.5992 	-2.98717e-76
0.5999 	-7.41215e-76
0.6006 	-4.25226e-76
0.6013 	-1.44334e-77
0.602 	-1.45705e-77
0.6027 	-1.46904e-77
0.6034 	-1.46637e-77
0.6041 	-1.93154e-76
0.6048 	-5.5016e-76
0.6055 	-3.97089e-76
0.6062 	-3.9986e-77
0.6069 	-1.44082e-77
0.6076 	-1.43321e-77
0.6083 	-1.42474e-77
0.609 	-1.13764e-76
0.6097 	-3.92563e-76
0.6104 	-3.5257e-76
0.6111 	-7.34839e-77
0.6118 	-1.34684e-77
0.6125 	-1.31991e-77
0.6132 	-1.30395e-77
0.6139 	-5.80311e-77
0.6146 	-2.68489e-76
0.6153 	-2.98369e-76
0.616 	-8.74793e-77
0.6167 	-1.19031e-77
0.6174 	-1.15008e-77
0.6181 	-1.12579e-77
0.6188 	-2.20716e-77
0.6195 	-1.75641e-76
0.6202 	-2.41312e-76
0.6209 	-8.72363e-77
0.6216 	-9.968e-78
0.6223 	-9.50736e-78
0.623 	-9.1989e-78
0.6237 	-9.02189e-78
0.6244 	-1.09693e-76
0.6251 	-1.8707e-76
0.6258 	-7.81301e-77
0.6265 	-7.93586e-78
0.6272 	-7.48315e-78
0.6279 	-7.14312e-78
0.6286 	-6.97607e-78
0.6293 	-6.52374e-77
0.63 	-1.39434e-76
0.6307 	-6.47752e-77
0.6314 	-6.02929e-78
0.6321 	-5.62967e-78
0.6328 	-5.29449e-78
0.6335 	-5.1502e-78
0.6342 	-3.67919e-77
0.6349 	-8.60924e-77
0.6356 	-5.05481e-77
0.6363 	-4.38872e-78
0.637 	-4.06394e-78
0.6377 	-3.76218e-78
0.6384 	-3.64628e-78
0.6391 	-1.9525e-77
0.6398 	-5.13984e-77
0.6405 	-3.7525e-77
0.6412 	-5.35284e-78
0.6419 	-2.82556e-78
0.6426 	-2.57863e-78
0.6433 	-2.48594e-78
0.644 	-9.60426e-78
0.6447 	-2.96932e-77
0.6454 	-2.66981e-77
0.6461 	-6.39005e-78
0.6468 	-1.89876e-78
0.6475 	-1.72113e-78
0.6482 	-1.63828e-78
0.6489 	-4.23864e-78
0.6496 	-1.66041e-77
0.6503 	-1.8305e-77
0.651 	-5.78644e-78
0.6517 	-1.23714e-78
0.6524 	-1.11519e-78
0.6531 	-1.04712e-78
0.6538 	-1.53884e-78
0.6545 	-8.98371e-78
0.6552 	-1.21451e-77
0.6559 	-4.59764e-78
0.6566 	-7.83715e-79
0.6573 	-7.0327e-79
0.658 	-6.50964e-79
0.6587 	-6.22492e-79
0.6594 	-4.69679e-78
0.6601 	-7.82297e-78
0.6608 	-3.36682e-78
0.6615 	-4.83856e-79
0.6622 	-4.32602e-79
0.6629 	-3.94557e-79
0.6636 	-3.76393e-79
0.6643 	-2.36642e-78
0.665 	-4.90413e-78
0.6657 	-2.32497e-78
0.6664 	-2.91702e-79
0.6671 	-2.60029e-79
0.6678 	-2.33604e-79
0.6685 	-2.22362e-79
0.6692 	-1.1436e-78
0.6699 	-2.58288e-78
0.6706 	-1.53322e-78
0.6713 	-1.71983e-79
0.672 	-1.52938e-79
0.6727 	-1.35299e-79
0.6734 	-1.28529e-79
0.6741 	-5.25773e-79
0.6748 	-1.32703e-78
0.6755 	-9.72967e-79
0.6762 	-1.56775e-79
0.6769 	-8.81048e-80
0.6776 	-7.69356e-80
0.6783 	-7.27579e-80
0.679 	-2.26611e-79
0.6797 	-6.6456e-79
0.6804 	-5.97058e-79
0.6811 	-1.50469e-79
0.6818 	-4.97431e-80
0.6825 	-4.33435e-80
0.6832 	-4.03595e-80
0.6839 	-8.89251e-80
0.6846 	-3.23936e-79
0.6853 	-3.55414e-79
0.686 	-1.15515e-79
0.6867 	-2.75311e-80
0.6874 	-2.3945e-80
0.6881 	-2.19423e-80
0.6888 	-2.95933e-80
0.6895 	-1.53372e-79
0.6902 	-2.05647e-79
0.6909 	-7.91617e-80
0.6916 	-1.49361e-80
0.6923 	-1.29697e-80
0.693 	-1.16905e-80
0.6937 	-1.09858e-80
0.6944 	-7.03224e-80
0.6951 	-1.15795e-79
0.6958 	-5.03733e-80
0.6965 	-8.07002e-81
0.6972 	-7.37995e-81
0.6979 	-6.86767e-81
0.6986 	-6.61991e-81
0.6993 	-4.09125e-80
0.7 	-8.46252e-80
