0 	1
0.0007 	1
0.0014 	1
0.0021 	1
0.0028 	1
0.0035 	1
0.0042 	1
0.0049 	1
0.0056 	1
0.0063 	1
0.007 	1
0.0077 	1
0.0084 	1
0.0091 	1
0.0098 	1
0.0105 	1
0.0112 	1
0.0119 	1
0.0126 	1
0.0133 	1
0.014 	1
0.0147 	1
0.0154 	1
0.0161 	1
0.0168 	1
0.0175 	1
0.0182 	1
0.0189 	1
0.0196 	1
0.0203 	1
0.021 	1
0.0217 	1
0.0224 	1
0.0231 	1
0.0238 	1
0.0245 	1
0.0252 	1
0.0259 	1
0.0266 	1
0.0273 	1
0.028 	1
0.0287 	1
0.0294 	1
0.0301 	1
0.0308 	1
0.0315 	1
0.0322 	1
0.0329 	1
0.0336 	1
0.0343 	1
0.035 	1
0.0357 	1
0.0364 	1
0.0371 	1
0.0378 	1
0.0385 	1
0.0392 	1
0.0399 	1
0.0406 	1
0.0413 	1
0.042 	1
0.0427 	1
0.0434 	1
0.0441 	1
0.0448 	1
0.0455 	1
0.0462 	1
0.0469 	1
0.0476 	1
0.0483 	1
0.049 	1
0.0497 	1
0.0504 	1
0.0511 	1
0.0518 	1
0.0525 	1
0.0532 	1
0.0539 	1
0.0546 	1
0.0553 	1
0.056 	1
0.0567 	1
0.0574 	1
0.0581 	1
0.0588 	1
0.0595 	1
0.0602 	1
0.0609 	1
0.0616 	1
0.0623 	1
0.063 	1
0.0637 	1
0.0644 	1
0.0651 	1
0.0658 	1
0.0665 	1
0.0672 	1
0.0679 	1
0.0686 	1
0.0693 	1
0.07 	1
0.0707 	1
0.0714 	1
0.0721 	1
0.0728 	1
0.0735 	1
0.0742 	1
0.0749 	1
0.0756 	1
0.0763 	1
0.077 	1
0.0777 	1
0.0784 	1
0.0791 	1
0.0798 	1
0.0805 	1
0.0812 	1
0.0819 	1
0.0826 	1
0.0833 	1
0.084 	1
0.0847 	1
0.0854 	1
0.0861 	1
0.0868 	1
0.0875 	1
0.0882 	1
0.0889 	1
0.0896 	1
0.0903 	1
0.091 	1
0.0917 	1
0.0924 	1
0.0931 	1
0.0938 	1
0.0945 	1
0.0952 	1
0.0959 	1
0.0966 	1
0.0973 	1
0.098 	1
0.0987 	1
0.0994 	1
0.1001 	1
0.1008 	1
0.1015 	1
0.1022 	1
0.1029 	1
0.1036 	1
0.1043 	1
0.105 	1
0.1057 	1
0.1064 	1
0.1071 	1
0.1078 	1
0.1085 	1
0.1092 	1
0.1099 	1
0.1106 	1
0.1113 	1
0.112 	1
0.1127 	1
0.1134 	1
0.1141 	1
0.1148 	1
0.1155 	1
0.1162 	1
0.1169 	1
0.1176 	1
0.1183 	1
0.119 	1
0.1197 	1
0.1204 	1
0.1211 	1
0.1218 	1
0.1225 	1
0.1232 	1
0.1239 	1
0.1246 	1
0.1253 	1
0.126 	1
0.1267 	1
0.1274 	1
0.1281 	1
0.1288 	1
0.1295 	1
0.1302 	1
0.1309 	1
0.1316 	1
0.1323 	1
0.133 	1
0.1337 	1
0.1344 	1
0.1351 	1
0.1358 	1
0.1365 	1
0.1372 	1
0.1379 	1
0.1386 	1
0.1393 	1
0.14 	1
0.1407 	1
0.1414 	1
0.1421 	1
0.1428 	1
0.1435 	1
0.1442 	1
0.1449 	1
0.1456 	1
0.1463 	1
0.147 	1
0.1477 	1
0.1484 	1
0.1491 	1
0.1498 	1
0.1505 	1
0.1512 	1
0.1519 	1
0.1526 	1
0.1533 	1
0.154 	1
0.1547 	1
0.1554 	1
0.1561 	1
0.1568 	1
0.1575 	1
0.1582 	1
0.1589 	1
0.1596 	1
0.1603 	1
0.161 	1
0.1617 	1
0.1624 	1
0.1631 	1
0.1638 	1
0.1645 	1
0.1652 	1
0.1659 	1
0.1666 	1
0.1673 	1
0.168 	1
0.1687 	1
0.1694 	1
0.1701 	1
0.1708 	1
0.1715 	1
0.1722 	1
0.1729 	1
0.1736 	1
0.1743 	1
0.175 	1
0.1757 	1
0.1764 	1
0.1771 	1
0.1778 	1
0.1785 	1
0.1792 	1
0.1799 	1
0.1806 	1
0.1813 	1
0.182 	1
0.1827 	1
0.1834 	1
0.1841 	1
0.1848 	1
0.1855 	1
0.1862 	1
0.1869 	1
0.1876 	1
0.1883 	1
0.189 	1
0.1897 	1
0.1904 	1
0.1911 	1
0.1918 	1
0.1925 	1
0.1932 	1
0.1939 	1
0.1946 	1
0.1953 	1
0.196 	1
0.1967 	1
0.1974 	1
0.1981 	1
0.1988 	1
0.1995 	1
0.2002 	1
0.2009 	1
0.2016 	1
0.2023 	1
0.203 	1
0.2037 	1
0.2044 	1
0.2051 	1
0.2058 	1
0.2065 	1
0.2072 	1
0.2079 	1
0.2086 	1
0.2093 	1
0.21 	1
0.2107 	1
0.2114 	1
0.2121 	1
0.2128 	1
0.2135 	1
0.2142 	1
0.2149 	1
0.2156 	1
0.2163 	1
0.217 	1
0.2177 	1
0.2184 	1
0.2191 	1
0.2198 	1
0.2205 	1
0.2212 	1
0.2219 	0.999999
0.2226 	0.999999
0.2233 	0.999999
0.224 	0.999999
0.2247 	0.999997
0.2254 	0.999997
0.2261 	0.999998
0.2268 	0.999975
0.2275 	0.999973
0.2282 	0.99997
0.2289 	0.99996
0.2296 	0.99992
0.2303 	0.999907
0.231 	0.99993
0.2317 	0.999382
0.2324 	0.999317
0.2331 	0.999252
0.2338 	0.999118
0.2345 	0.998087
0.2352 	0.997511
0.2359 	0.998071
0.2366 	0.991907
0.2373 	0.989477
0.238 	0.988029
0.2387 	0.986582
0.2394 	0.972643
0.2401 	0.960525
0.2408 	0.965102
0.2415 	0.952245
0.2422 	0.929229
0.2429 	0.912494
0.2436 	0.895759
0.2443 	0.840667
0.245 	0.775113
0.2457 	0.732534
0.2464 	0.687602
0.2471 	0.637488
0.2478 	0.589408
0.2485 	0.541327
0.2492 	0.486187
0.2499 	0.427124
0.2506 	0.353654
0.2513 	0.281439
0.252 	0.244073
0.2527 	0.193329
0.2534 	0.142586
0.2541 	0.117441
0.2548 	0.117896
0.2555 	0.0998147
0.2562 	0.0743194
0.2569 	0.0634303
0.2576 	0.0430433
0.2583 	0.0226562
0.259 	0.0101227
0.2597 	0.011726
0.2604 	0.0108933
0.2611 	0.00823354
0.2618 	0.00708894
0.2625 	0.00463656
0.2632 	0.00218418
0.2639 	0.000272523
0.2646 	0.000343647
0.2653 	0.000349526
0.266 	0.000268411
0.2667 	0.000233994
0.2674 	0.000154719
0.2681 	7.5444e-05
0.2688 	1.8722e-06
0.2695 	2.45498e-06
0.2702 	2.69906e-06
0.2709 	2.09642e-06
0.2716 	1.79386e-06
0.2723 	1.24412e-06
0.273 	6.44878e-07
0.2737 	4.56371e-08
0.2744 	3.69078e-09
0.2751 	4.35225e-09
0.2758 	3.41418e-09
0.2765 	2.8103e-09
0.2772 	2.08506e-09
0.2779 	1.14954e-09
0.2786 	2.14019e-10
0.2793 	1.36794e-11
0.28 	1.38551e-11
0.2807 	1.36742e-11
0.2814 	1.33692e-11
0.2821 	1.28873e-11
0.2828 	1.25673e-11
0.2835 	1.22472e-11
0.2842 	1.15546e-11
0.2849 	1.0655e-11
0.2856 	1.03791e-11
0.2863 	1.01774e-11
0.287 	9.70136e-12
0.2877 	9.34131e-12
0.2884 	8.98125e-12
0.2891 	8.4132e-12
0.2898 	7.63715e-12
0.2905 	6.92251e-12
0.2912 	6.23244e-12
0.2919 	5.78195e-12
0.2926 	5.26226e-12
0.2933 	4.74257e-12
0.294 	4.33354e-12
0.2947 	4.12373e-12
0.2954 	3.6996e-12
0.2961 	3.11472e-12
0.2968 	2.80791e-12
0.2975 	2.39831e-12
0.2982 	1.98871e-12
0.2989 	1.6684e-12
0.2996 	1.67552e-12
0.3003 	1.56611e-12
0.301 	1.30132e-12
0.3017 	1.16063e-12
0.3024 	9.5594e-13
0.3031 	7.51251e-13
0.3038 	5.61367e-13
0.3045 	5.63992e-13
0.3052 	5.42005e-13
0.3059 	4.58487e-13
0.3066 	4.06491e-13
0.3073 	3.40346e-13
0.308 	2.70243e-13
0.3087 	2.00141e-13
0.3094 	1.88563e-13
0.3101 	1.78843e-13
0.3108 	1.53252e-13
0.3115 	1.33926e-13
0.3122 	1.15555e-13
0.3129 	9.42363e-14
0.3136 	7.29179e-14
0.3143 	6.53803e-14
0.315 	6.16013e-14
0.3157 	5.17257e-14
0.3164 	4.33617e-14
0.3171 	3.7493e-14
0.3178 	2.98768e-14
0.3185 	2.22607e-14
0.3192 	1.91799e-14
0.3199 	1.86189e-14
0.3206 	1.548e-14
0.3213 	1.21167e-14
0.322 	1.04339e-14
0.3227 	7.73767e-15
0.3234 	5.04147e-15
0.3241 	3.78151e-15
0.3248 	3.95785e-15
0.3255 	3.40476e-15
0.3262 	2.55989e-15
0.3269 	2.20197e-15
0.3276 	1.51342e-15
0.3283 	8.24868e-16
0.329 	4.03478e-16
0.3297 	4.62999e-16
0.3304 	4.28969e-16
0.3311 	3.24778e-16
0.3318 	2.79359e-16
0.3325 	1.85201e-16
0.3332 	9.10429e-17
0.3339 	1.7927e-17
0.3346 	2.19694e-17
0.3353 	2.20794e-17
0.336 	1.69463e-17
0.3367 	1.47026e-17
0.3374 	9.7752e-18
0.3381 	4.84775e-18
0.3388 	2.76412e-19
0.3395 	3.35129e-19
0.3402 	3.54406e-19
0.3409 	2.75083e-19
0.3416 	2.3382e-19
0.3423 	1.63232e-19
0.343 	8.70728e-20
0.3437 	1.09134e-20
0.3444 	5.45462e-21
0.3451 	5.27344e-21
0.3458 	4.12253e-21
0.3465 	3.31689e-21
0.3472 	2.51975e-21
0.3479 	1.55101e-21
0.3486 	5.82262e-22
0.3493 	3.74028e-22
0.35 	3.73217e-22
0.3507 	2.92081e-22
0.3514 	2.25883e-22
0.3521 	1.79074e-22
0.3528 	1.12268e-22
0.3535 	4.5463e-23
0.3542 	2.35273e-23
0.3549 	2.65203e-23
0.3556 	2.19841e-23
0.3563 	1.65809e-23
0.357 	1.37896e-23
0.3577 	8.53407e-24
0.3584 	3.27856e-24
0.3591 	7.39821e-25
0.3598 	9.1795e-25
0.3605 	8.23017e-25
0.3612 	6.18858e-25
0.3619 	5.31901e-25
0.3626 	3.32863e-25
0.3633 	1.33825e-25
0.364 	6.54626e-27
0.3647 	8.43842e-27
0.3654 	8.14284e-27
0.3661 	6.20644e-27
0.3668 	5.37995e-27
0.3675 	3.45185e-27
0.3682 	1.52376e-27
0.3689 	9.43132e-30
0.3696 	1.23514e-29
0.3703 	1.27637e-29
0.371 	9.8323e-30
0.3717 	8.5811e-30
0.3724 	5.65149e-30
0.3731 	2.72187e-30
0.3738 	1.52208e-33
0.3745 	2.01456e-33
0.3752 	2.22498e-33
0.3759 	1.73025e-33
0.3766 	1.48275e-33
0.3773 	1.02432e-33
0.378 	5.29879e-34
0.3787 	3.54367e-35
0.3794 	1.4876e-37
0.3801 	1.74492e-37
0.3808 	1.36817e-37
0.3815 	1.12536e-37
0.3822 	8.30727e-38
0.3829 	4.55757e-38
0.3836 	8.07881e-39
0.3843 	5.40881e-41
0.385 	6.76611e-41
0.3857 	5.3486e-41
0.3864 	4.23325e-41
0.3871 	3.32506e-41
0.3878 	1.91554e-41
0.3885 	5.06026e-42
0.3892 	3.16263e-44
0.3899 	4.01511e-44
0.3906 	3.39533e-44
0.3913 	2.59187e-44
0.392 	2.15932e-44
0.3927 	1.29589e-44
0.3934 	4.32455e-45
0.3941 	8.53191e-48
0.3948 	1.09422e-47
0.3955 	9.8943e-48
0.3962 	7.46305e-48
0.3969 	6.41925e-48
0.3976 	3.99081e-48
0.3983 	1.56238e-48
0.399 	1.35893e-51
0.3997 	1.75955e-51
0.4004 	1.70061e-51
0.4011 	1.29698e-51
0.4018 	1.12344e-51
0.4025 	7.2022e-52
0.4032 	3.16995e-52
0.4039 	1.85159e-55
0.4046 	2.4219e-55
0.4053 	2.50171e-55
0.406 	1.92751e-55
0.4067 	1.68029e-55
0.4074 	1.10661e-55
0.4081 	5.32929e-56
0.4088 	2.26487e-59
0.4095 	2.99488e-59
0.4102 	3.30639e-59
0.4109 	2.5717e-59
0.4116 	2.20408e-59
0.4123 	1.52085e-59
0.413 	7.86776e-60
0.4137 	5.27021e-61
0.4144 	3.42105e-63
0.4151 	4.03743e-63
0.4158 	3.168e-63
0.4165 	2.60887e-63
0.4172 	1.92389e-63
0.4179 	1.05517e-63
0.4186 	1.86455e-64
0.4193 	3.69407e-67
0.42 	4.66183e-67
0.4207 	3.688e-67
0.4214 	2.92271e-67
0.4221 	2.29389e-67
0.4228 	1.32086e-67
0.4235 	3.47836e-68
0.4242 	3.84905e-71
0.4249 	4.89626e-71
0.4256 	4.14248e-71
0.4263 	3.16376e-71
0.427 	2.63301e-71
0.4277 	1.57994e-71
0.4284 	5.2688e-72
0.4291 	3.94129e-75
0.4298 	5.05642e-75
0.4305 	4.57317e-75
0.4312 	3.45058e-75
0.4319 	2.96467e-75
0.4326 	1.84305e-75
0.4333 	7.21416e-76
0.434 	3.96375e-79
0.4347 	5.00436e-79
0.4354 	4.85178e-79
0.4361 	3.8043e-79
0.4368 	3.31793e-79
0.4375 	2.12535e-79
0.4382 	9.32771e-80
0.4389 	-1.07403e-80
0.4396 	-5.88721e-80
0.4403 	-6.5907e-80
0.441 	-1.8146e-80
0.4417 	-1.19492e-81
0.4424 	-1.61345e-81
0.4431 	-2.03197e-81
0.4438 	-9.10618e-81
0.4445 	-1.02716e-79
0.4452 	-1.42969e-79
0.4459 	-4.9833e-80
0.4466 	-3.33652e-81
0.4473 	-3.92211e-81
0.448 	-4.53893e-81
0.4487 	-5.15575e-81
0.4494 	-1.3165e-79
0.4501 	-2.28989e-79
0.4508 	-9.32894e-80
0.4515 	-6.09474e-81
0.4522 	-6.62982e-81
0.4529 	-7.2762e-81
0.4536 	-7.92257e-81
0.4543 	-1.34713e-79
0.455 	-2.95909e-79
0.4557 	-1.35029e-79
0.4564 	-8.6338e-81
0.4571 	-8.94885e-81
0.4578 	-9.4098e-81
0.4585 	-9.87074e-81
0.4592 	-1.1409e-79
0.4599 	-2.75956e-79
0.4606 	-1.60385e-79
0.4613 	-1.01314e-80
0.462 	-1.01873e-80
0.4627 	-1.03259e-80
0.4634 	-1.04644e-80
0.4641 	-8.12978e-80
0.4648 	-2.22828e-79
0.4655 	-1.62041e-79
0.4662 	-2.03252e-80
0.4669 	-1.00897e-80
0.4676 	-9.90383e-81
0.4683 	-9.71792e-81
0.469 	-4.87975e-80
0.4697 	-1.58558e-79
0.4704 	-1.42692e-79
0.4711 	-3.26073e-80
0.4718 	-8.87084e-81
0.4725 	-8.46636e-81
0.4732 	-8.06187e-81
0.4739 	-2.41462e-80
0.4746 	-1.00693e-79
0.4753 	-1.11477e-79
0.476 	-3.45779e-80
0.4767 	-7.02211e-81
0.4774 	-6.54089e-81
0.4781 	-6.05967e-81
0.4788 	-9.07873e-81
0.4795 	-5.76075e-80
0.4802 	-7.83191e-80
0.4809 	-2.94882e-80
0.4816 	-5.03549e-81
0.4823 	-4.61499e-81
0.483 	-4.17152e-81
0.4837 	-3.72806e-81
0.4844 	-2.99004e-80
0.4851 	-5.00261e-80
0.4858 	-2.15854e-80
0.4865 	-3.28407e-81
0.4872 	-2.99849e-81
0.4879 	-2.65259e-81
0.4886 	-2.30668e-81
0.4893 	-1.41497e-80
0.49 	-2.93171e-80
0.4907 	-1.40077e-80
0.4914 	-1.97219e-81
0.4921 	-1.80625e-81
0.4928 	-1.56871e-81
0.4935 	-1.33116e-81
0.4942 	-6.12158e-81
0.4949 	-1.37054e-80
0.4956 	-8.21777e-81
0.4963 	-1.09795e-81
0.497 	-1.01445e-81
0.4977 	-8.67565e-82
0.4984 	-7.20676e-82
0.4991 	-2.42069e-81
0.4998 	-5.96768e-81
0.5005 	-4.41635e-81
0.5012 	-8.25679e-82
0.5019 	-5.33692e-82
0.5026 	-4.50691e-82
0.5033 	-3.6769e-82
0.504 	-8.71029e-82
0.5047 	-2.42982e-81
0.5054 	-2.19492e-81
0.5061 	-6.14746e-82
0.5068 	-2.64013e-82
0.5075 	-2.20713e-82
0.5082 	-1.77413e-82
0.5089 	-2.81836e-82
0.5096 	-9.27939e-82
0.5103 	-1.01607e-81
0.511 	-3.60228e-82
0.5117 	-1.23209e-82
0.5124 	-1.02195e-82
0.5131 	-8.11818e-83
0.5138 	-7.97664e-83
0.5145 	-3.33159e-82
0.5152 	-4.40571e-82
0.5159 	-1.83031e-82
0.5166 	-5.38745e-83
0.5173 	-4.48504e-83
0.518 	-3.53087e-83
0.5187 	-2.5767e-83
0.5194 	-1.12645e-82
0.5201 	-1.79761e-82
0.5208 	-8.38051e-83
0.5215 	-2.20112e-83
0.5222 	-1.86974e-83
0.5229 	-1.46245e-83
0.5236 	-1.05515e-83
0.5243 	-3.59065e-83
0.525 	-6.92877e-83
0.5257 	-3.52791e-83
0.5264 	-8.53414e-84
0.5271 	-7.41883e-84
0.5278 	-5.77806e-84
0.5285 	-4.13728e-84
0.5292 	-1.07948e-83
0.5299 	-2.20626e-83
0.5306 	-1.38218e-83
0.5313 	-3.14763e-84
0.532 	-2.80683e-84
0.5327 	-2.18092e-84
0.5334 	-1.55501e-84
0.5341 	-3.05923e-84
0.5348 	-6.69367e-84
0.5355 	-5.08159e-84
0.5362 	-1.3709e-84
0.5369 	-1.0143e-84
0.5376 	-7.87525e-85
0.5383 	-5.60751e-85
0.539 	-8.15817e-85
0.5397 	-1.93823e-84
0.5404 	-1.76379e-84
0.5411 	-6.16709e-85
0.5418 	-3.50657e-85
0.5425 	-2.72416e-85
0.5432 	-1.94174e-85
0.5439 	-2.03942e-85
0.5446 	-5.36431e-85
0.5453 	-5.80665e-85
0.546 	-2.40559e-85
0.5467 	-1.16153e-85
0.5474 	-9.03845e-86
0.5481 	-6.46163e-86
0.5488 	-4.74471e-86
0.5495 	-1.42079e-85
0.5502 	-1.81993e-85
0.5509 	-8.51111e-86
0.5516 	-3.64839e-86
0.5523 	-2.87989e-86
0.553 	-2.06808e-86
0.5537 	-1.25626e-86
0.5544 	-3.6049e-86
0.5551 	-5.44708e-86
0.5558 	-2.79162e-86
0.5565 	-1.08081e-86
0.5572 	-8.82233e-87
0.5579 	-6.37103e-87
0.5586 	-3.91973e-87
0.5593 	-8.76895e-87
0.56 	-1.56093e-86
0.5607 	-8.59591e-87
0.5614 	-3.07937e-87
0.5621 	-2.60134e-87
0.5628 	-1.89068e-87
0.5635 	-1.18002e-87
0.5642 	-2.04607e-87
0.5649 	-3.7881e-87
0.5656 	-2.50504e-87
0.5663 	-8.44949e-88
0.567 	-7.39056e-88
0.5677 	-5.40935e-88
0.5684 	-3.42813e-88
0.5691 	-4.58053e-88
0.5698 	-8.86665e-88
0.5705 	-6.94848e-88
0.5712 	-2.5486e-88
0.5719 	-2.02522e-88
0.5726 	-1.4933e-88
0.5733 	-9.61381e-89
0.574 	-9.83718e-89
0.5747 	-2.00375e-88
0.5754 	-1.84226e-88
0.5761 	-7.94632e-89
0.5768 	-5.35806e-89
0.5775 	-3.98092e-89
0.5782 	-2.60377e-89
0.5789 	-2.0254e-89
0.5796 	-4.37602e-89
0.5803 	-4.68413e-89
0.581 	-2.26887e-89
0.5817 	-1.36992e-89
0.5824 	-1.02568e-89
0.5831 	-6.81426e-90
0.5838 	-3.99264e-90
0.5845 	-9.24336e-90
0.5852 	-1.14519e-89
0.5859 	-6.05481e-90
0.5866 	-3.34495e-90
0.5873 	-2.55611e-90
0.588 	-1.7243e-90
0.5887 	-8.92493e-91
0.5894 	-1.88977e-90
0.5901 	-2.69805e-90
0.5908 	-1.528e-90
0.5915 	-7.74063e-91
0.5922 	-6.16647e-91
0.5929 	-4.22158e-91
0.5936 	-2.2767e-91
0.5943 	-3.74183e-91
0.595 	-6.13701e-91
0.5957 	-3.67382e-91
0.5964 	-1.73624e-91
0.5971 	-1.44116e-91
0.5978 	-1.0007e-91
0.5985 	-5.60236e-92
0.5992 	-7.17903e-92
0.5999 	-1.20788e-91
0.6006 	-8.45904e-92
0.6013 	-3.7779e-92
0.602 	-3.26533e-92
0.6027 	-2.29825e-92
0.6034 	-1.33118e-92
0.6041 	-1.33509e-92
0.6048 	-2.31003e-92
0.6055 	-1.87226e-92
0.6062 	-8.69392e-93
0.6069 	-7.17778e-93
0.6076 	-5.11754e-93
0.6083 	-3.0573e-93
0.609 	-2.40723e-93
0.6097 	-4.29554e-93
0.6104 	-3.99485e-93
0.6111 	-2.05241e-93
0.6118 	-1.53179e-93
0.6125 	-1.10558e-93
0.6132 	-6.79375e-94
0.6139 	-4.20831e-94
0.6146 	-7.77086e-94
0.6153 	-8.2361e-94
0.616 	-4.5716e-94
0.6167 	-3.17573e-94
0.6174 	-2.3189e-94
0.6181 	-1.46207e-94
0.6188 	-7.13231e-95
0.6195 	-1.36835e-94
0.6202 	-1.64379e-94
0.6209 	-9.69985e-95
0.6216 	-6.31699e-95
0.6223 	-4.72527e-95
0.623 	-3.05016e-95
0.6237 	-1.37505e-95
0.6244 	-2.34646e-95
0.6251 	-3.18099e-95
0.6258 	-1.97268e-95
0.6265 	-1.19416e-95
0.6272 	-9.36079e-96
0.6279 	-6.1739e-96
0.6286 	-2.987e-96
0.6293 	-3.92008e-96
0.63 	-5.97684e-96
0.6307 	-3.86227e-96
0.6314 	-2.199e-96
0.6321 	-1.80394e-96
0.6328 	-1.21354e-96
0.6335 	-6.23131e-97
0.6342 	-6.38272e-97
0.6349 	-9.8984e-97
0.6356 	-7.30336e-97
0.6363 	-3.94697e-97
0.637 	-3.38405e-97
0.6377 	-2.31826e-97
0.6384 	-1.25248e-97
0.6391 	-1.01316e-97
0.6398 	-1.60034e-97
0.6405 	-1.33716e-97
0.6412 	-7.33846e-98
0.6419 	-6.18336e-98
0.6426 	-4.30754e-98
0.6433 	-2.43172e-98
0.644 	-1.56823e-98
0.6447 	-2.52699e-98
0.6454 	-2.37518e-98
0.6461 	-1.39044e-98
0.6468 	-1.10116e-98
0.6475 	-7.79074e-99
0.6482 	-4.56991e-99
0.6489 	-2.36734e-99
0.6496 	-3.89859e-99
0.6503 	-4.09985e-99
0.651 	-2.52777e-99
0.6517 	-1.91233e-99
0.6524 	-1.37251e-99
0.6531 	-8.32698e-100
0.6538 	-3.48529e-100
0.6545 	-5.87859e-100
0.6552 	-6.88638e-100
0.6559 	-4.43041e-100
0.6566 	-3.19792e-100
0.6573 	-2.35684e-100
0.658 	-1.47325e-100
0.6587 	-5.89663e-101
0.6594 	-8.66606e-101
0.6601 	-1.12685e-100
0.6608 	-7.51224e-101
0.6615 	-5.09268e-101
0.6622 	-3.94716e-101
0.6629 	-2.53399e-101
0.6636 	-1.12082e-101
0.6643 	-1.24925e-101
0.665 	-1.79813e-101
0.6657 	-1.23545e-101
0.6664 	-7.92935e-102
0.6671 	-6.45098e-102
0.6678 	-4.24159e-102
0.6685 	-2.0322e-102
0.6692 	-1.76125e-102
0.6699 	-2.56725e-102
0.6706 	-1.97457e-102
0.6713 	-1.20757e-102
0.672 	-1.02939e-102
0.6727 	-6.91583e-103
0.6734 	-3.53779e-103
0.6741 	-2.42873e-103
0.6748 	-3.58872e-103
0.6755 	-3.07173e-103
0.6762 	-1.88395e-103
0.6769 	-1.60453e-103
0.6776 	-1.09925e-103
0.6783 	-5.93967e-104
0.679 	-3.27591e-104
0.6797 	-4.91257e-104
0.6804 	-4.65693e-104
0.6811 	-2.98207e-104
0.6818 	-2.44408e-104
0.6825 	-1.70444e-104
0.6832 	-9.64806e-105
0.6839 	-4.32175e-105
0.6846 	-6.5861e-105
0.6853 	-6.88754e-105
0.686 	-4.57177e-105
0.6867 	-3.63962e-105
0.6874 	-2.57973e-105
0.6881 	-1.51984e-105
0.6888 	-5.57588e-106
0.6895 	-8.64848e-106
0.6902 	-9.94594e-106
0.6909 	-6.80556e-106
0.6916 	-5.2306e-106
0.6923 	-3.81333e-106
0.693 	-2.32611e-106
0.6937 	-8.38887e-107
0.6944 	-1.11243e-106
0.6951 	-1.40332e-106
0.6958 	-9.85568e-107
0.6965 	-7.16621e-107
0.6972 	-5.70555e-107
0.6979 	-3.90458e-107
0.6986 	-2.10361e-107
0.6993 	-2.46926e-107
0.7 	-3.42583e-107
