0 	1
0.0007 	1
0.0014 	1
0.0021 	1
0.0028 	1
0.0035 	1
0.0042 	1
0.0049 	1
0.0056 	1
0.0063 	1
0.007 	1
0.0077 	1
0.0084 	1
0.0091 	1
0.0098 	1
0.0105 	1
0.0112 	1
0.0119 	1
0.0126 	1
0.0133 	1
0.014 	1
0.0147 	1
0.0154 	1
0.0161 	1
0.0168 	1
0.0175 	1
0.0182 	1
0.0189 	1
0.0196 	1
0.0203 	1
0.021 	1
0.0217 	1
0.0224 	1
0.0231 	1
0.0238 	1
0.0245 	1
0.0252 	1
0.0259 	1
0.0266 	1
0.0273 	1
0.028 	1
0.0287 	1
0.0294 	1
0.0301 	1
0.0308 	1
0.0315 	1
0.0322 	1
0.0329 	1
0.0336 	1
0.0343 	1
0.035 	1
0.0357 	1
0.0364 	1
0.0371 	1
0.0378 	1
0.0385 	1
0.0392 	1
0.0399 	1
0.0406 	1
0.0413 	1
0.042 	1
0.0427 	1
0.0434 	1
0.0441 	1
0.0448 	1
0.0455 	1
0.0462 	1
0.0469 	1
0.0476 	1
0.0483 	1
0.049 	1
0.0497 	1
0.0504 	1
0.0511 	1
0.0518 	1
0.0525 	1
0.0532 	1
0.0539 	1
0.0546 	1
0.0553 	1
0.056 	1
0.0567 	1
0.0574 	1
0.0581 	1
0.0588 	1
0.0595 	1
0.0602 	1
0.0609 	1
0.0616 	1
0.0623 	1
0.063 	1
0.0637 	1
0.0644 	1
0.0651 	1
0.0658 	1
0.0665 	1
0.0672 	1
0.0679 	1
0.0686 	1
0.0693 	1
0.07 	1
0.0707 	1
0.0714 	1
0.0721 	1
0.0728 	1
0.0735 	1
0.0742 	1
0.0749 	1
0.0756 	1
0.0763 	1
0.077 	1
0.0777 	1
0.0784 	1
0.0791 	1
0.0798 	1
0.0805 	1
0.0812 	1
0.0819 	1
0.0826 	1
0.0833 	1
0.084 	1
0.0847 	1
0.0854 	1
0.0861 	1
0.0868 	1
0.0875 	1
0.0882 	1
0.0889 	1
0.0896 	1
0.0903 	1
0.091 	1
0.0917 	1
0.0924 	1
0.0931 	1
0.0938 	1
0.0945 	1
0.0952 	1
0.0959 	1
0.0966 	1
0.0973 	1
0.098 	1
0.0987 	1
0.0994 	1
0.1001 	1
0.1008 	1
0.1015 	1
0.1022 	1
0.1029 	1
0.1036 	1
0.1043 	1
0.105 	1
0.1057 	1
0.1064 	1
0.1071 	1
0.1078 	1
0.1085 	1
0.1092 	1
0.1099 	1
0.1106 	1
0.1113 	1
0.112 	1
0.1127 	1
0.1134 	1
0.1141 	1
0.1148 	1
0.1155 	1
0.1162 	1
0.1169 	1
0.1176 	1
0.1183 	1
0.119 	1
0.1197 	1
0.1204 	1
0.1211 	1
0.1218 	1
0.1225 	1
0.1232 	1
0.1239 	1
0.1246 	1
0.1253 	1
0.126 	1
0.1267 	1
0.1274 	1
0.1281 	1
0.1288 	1
0.1295 	1
0.1302 	1
0.1309 	1
0.1316 	1
0.1323 	1
0.133 	1
0.1337 	1
0.1344 	1
0.1351 	1
0.1358 	1
0.1365 	1
0.1372 	1
0.1379 	1
0.1386 	1
0.1393 	1
0.14 	1
0.1407 	1
0.1414 	1
0.1421 	1
0.1428 	1
0.1435 	1
0.1442 	1
0.1449 	1
0.1456 	1
0.1463 	1
0.147 	1
0.1477 	1
0.1484 	1
0.1491 	1
0.1498 	1
0.1505 	1
0.1512 	1
0.1519 	1
0.1526 	1
0.1533 	1
0.154 	1
0.1547 	1
0.1554 	1
0.1561 	1
0.1568 	1
0.1575 	1
0.1582 	1
0.1589 	1
0.1596 	1
0.1603 	1
0.161 	1
0.1617 	1
0.1624 	1
0.1631 	1
0.1638 	1
0.1645 	1
0.1652 	1
0.1659 	1
0.1666 	1
0.1673 	1
0.168 	1
0.1687 	1
0.1694 	1
0.1701 	1
0.1708 	1
0.1715 	0.999999
0.1722 	0.999998
0.1729 	0.999998
0.1736 	0.999997
0.1743 	0.999996
0.175 	0.999996
0.1757 	0.999912
0.1764 	0.999747
0.1771 	0.999582
0.1778 	0.999416
0.1785 	0.999251
0.1792 	0.999085
0.1799 	0.998863
0.1806 	0.996588
0.1813 	0.990801
0.182 	0.985014
0.1827 	0.979227
0.1834 	0.97344
0.1841 	0.967653
0.1848 	0.960665
0.1855 	0.94274
0.1862 	0.901495
0.1869 	0.86025
0.1876 	0.819005
0.1883 	0.777759
0.189 	0.736514
0.1897 	0.69302
0.1904 	0.621826
0.1911 	0.559599
0.1918 	0.497372
0.1925 	0.435145
0.1932 	0.372918
0.1939 	0.310691
0.1946 	0.248464
0.1953 	0.195336
0.196 	0.164833
0.1967 	0.136303
0.1974 	0.107774
0.1981 	0.0792442
0.1988 	0.0507149
0.1995 	0.0221856
0.2002 	0.0134859
0.2009 	0.0111059
0.2016 	0.00912128
0.2023 	0.00713683
0.203 	0.00515239
0.2037 	0.00316795
0.2044 	0.0011835
0.2051 	0.00042392
0.2058 	0.00034443
0.2065 	0.000285317
0.2072 	0.000226209
0.2079 	0.000167101
0.2086 	0.000107993
0.2093 	4.88853e-05
0.21 	1.77497e-05
0.2107 	1.41749e-05
0.2114 	1.17898e-05
0.2121 	9.40495e-06
0.2128 	7.02007e-06
0.2135 	4.63518e-06
0.2142 	2.25029e-06
0.2149 	6.87004e-07
0.2156 	5.40825e-07
0.2163 	4.51224e-07
0.217 	3.61636e-07
0.2177 	2.72047e-07
0.2184 	1.82459e-07
0.2191 	9.28705e-08
0.2198 	2.2598e-08
0.2205 	1.75439e-08
0.2212 	1.46934e-08
0.2219 	1.1844e-08
0.2226 	8.9947e-09
0.2233 	6.14538e-09
0.224 	3.29605e-09
0.2247 	6.84148e-10
0.2254 	5.2671e-10
0.2261 	4.44547e-10
0.2268 	3.62441e-10
0.2275 	2.80351e-10
0.2282 	1.9826e-10
0.2289 	1.1617e-10
0.2296 	3.40791e-11
0.2303 	2.47461e-11
0.231 	2.16201e-11
0.2317 	1.87346e-11
0.2324 	1.58507e-11
0.2331 	1.29667e-11
0.2338 	1.00828e-11
0.2345 	7.19889e-12
0.2352 	6.11681e-12
0.2359 	5.60543e-12
0.2366 	5.14681e-12
0.2373 	4.68893e-12
0.238 	4.23105e-12
0.2387 	3.77317e-12
0.2394 	3.31529e-12
0.2401 	2.97502e-12
0.2408 	2.72847e-12
0.2415 	2.51195e-12
0.2422 	2.29618e-12
0.2429 	2.08041e-12
0.2436 	1.86464e-12
0.2443 	1.64887e-12
0.245 	1.46929e-12
0.2457 	1.33535e-12
0.2464 	1.2233e-12
0.2471 	1.11183e-12
0.2478 	1.00037e-12
0.2485 	8.88898e-13
0.2492 	7.7743e-13
0.2499 	6.81154e-13
0.2506 	6.13873e-13
0.2513 	5.59902e-13
0.252 	5.0631e-13
0.2527 	4.52718e-13
0.2534 	3.99127e-13
0.2541 	3.45535e-13
0.2548 	2.96812e-13
0.2555 	2.64507e-13
0.2562 	2.39905e-13
0.2569 	2.155e-13
0.2576 	1.91109e-13
0.2583 	1.66718e-13
0.259 	1.42328e-13
0.2597 	1.18932e-13
0.2604 	1.04444e-13
0.2611 	9.41252e-14
0.2618 	8.38836e-14
0.2625 	7.36629e-14
0.2632 	6.34423e-14
0.2639 	5.32217e-14
0.2646 	4.30011e-14
0.2653 	3.72103e-14
0.266 	3.31824e-14
0.2667 	2.93673e-14
0.2674 	2.55664e-14
0.2681 	2.17654e-14
0.2688 	1.79644e-14
0.2695 	1.41635e-14
0.2702 	1.19392e-14
0.2709 	1.052e-14
0.2716 	9.26517e-15
0.2723 	8.01718e-15
0.273 	6.76919e-15
0.2737 	5.52121e-15
0.2744 	4.27322e-15
0.2751 	3.49222e-15
0.2758 	3.04376e-15
0.2765 	2.67274e-15
0.2772 	2.3044e-15
0.2779 	1.93606e-15
0.2786 	1.56772e-15
0.2793 	1.19938e-15
0.28 	9.47018e-16
0.2807 	8.17306e-16
0.2814 	7.16394e-16
0.2821 	6.16389e-16
0.2828 	5.16383e-16
0.2835 	4.16378e-16
0.2842 	3.16372e-16
0.2849 	2.40563e-16
0.2856 	2.05708e-16
0.2863 	1.80048e-16
0.287 	1.54663e-16
0.2877 	1.29278e-16
0.2884 	1.03894e-16
0.2891 	7.85091e-17
0.2898 	5.72155e-17
0.2905 	4.84409e-17
0.2912 	4.23325e-17
0.2919 	3.62902e-17
0.2926 	3.02529e-17
0.2933 	2.42156e-17
0.294 	1.81784e-17
0.2947 	1.25894e-17
0.2954 	1.0541e-17
0.2961 	9.1961e-18
0.2968 	7.86366e-18
0.2975 	6.5346e-18
0.2982 	5.20554e-18
0.2989 	3.87649e-18
0.2996 	2.54743e-18
0.3003 	2.10363e-18
0.301 	1.81715e-18
0.3017 	1.55007e-18
0.3024 	1.28412e-18
0.3031 	1.01818e-18
0.3038 	7.52236e-19
0.3045 	4.86292e-19
0.3052 	3.78414e-19
0.3059 	3.22918e-19
0.3066 	2.74924e-19
0.3073 	2.27216e-19
0.308 	1.79509e-19
0.3087 	1.31802e-19
0.3094 	8.40943e-20
0.3101 	6.08806e-20
0.3108 	5.13247e-20
0.3115 	4.36382e-20
0.3122 	3.60103e-20
0.3129 	2.83823e-20
0.3136 	2.07544e-20
0.3143 	1.31264e-20
0.315 	8.72567e-21
0.3157 	7.26667e-21
0.3164 	6.17258e-21
0.3171 	5.08852e-21
0.3178 	4.00445e-21
0.3185 	2.92039e-21
0.3192 	1.83633e-21
0.3199 	1.10409e-21
0.3206 	9.08251e-22
0.3213 	7.70927e-22
0.322 	6.3506e-22
0.3227 	4.99193e-22
0.3234 	3.63326e-22
0.3241 	2.2746e-22
0.3248 	1.21341e-22
0.3255 	9.85829e-23
0.3262 	8.36433e-23
0.3269 	6.88584e-23
0.3276 	5.40854e-23
0.3283 	3.93124e-23
0.329 	2.45394e-23
0.3297 	1.13353e-23
0.3304 	9.09708e-24
0.3311 	7.71857e-24
0.3318 	6.35179e-24
0.3325 	4.98821e-24
0.3332 	3.62464e-24
0.3339 	2.26106e-24
0.3346 	8.97486e-25
0.3353 	7.05596e-25
0.336 	5.91429e-25
0.3367 	4.86713e-25
0.3374 	3.8239e-25
0.3381 	2.78068e-25
0.3388 	1.73746e-25
0.3395 	6.94241e-26
0.3402 	4.40925e-26
0.3409 	3.64579e-26
0.3416 	3.00149e-26
0.3423 	2.36045e-26
0.343 	1.7194e-26
0.3437 	1.07835e-26
0.3444 	4.37307e-27
0.3451 	2.11427e-27
0.3458 	1.72577e-27
0.3465 	1.42197e-27
0.3472 	1.12005e-27
0.3479 	8.18121e-28
0.3486 	5.16194e-28
0.3493 	2.14267e-28
0.35 	7.25401e-29
0.3507 	5.85398e-29
0.3514 	4.82988e-29
0.3521 	3.81305e-29
0.3528 	2.79622e-29
0.3535 	1.77939e-29
0.3542 	7.62554e-30
0.3549 	1.58469e-30
0.3556 	1.27036e-30
0.3563 	1.05018e-30
0.357 	8.31711e-31
0.3577 	6.13245e-31
0.3584 	3.9478e-31
0.3591 	1.76315e-31
0.3598 	1.77898e-32
0.3605 	1.42873e-32
0.3612 	1.18465e-32
0.3619 	9.42315e-33
0.3626 	7.00112e-33
0.3633 	4.57909e-33
0.364 	2.15706e-33
0.3647 	6.69142e-35
0.3654 	5.4704e-35
0.3661 	4.55492e-35
0.3668 	3.64448e-35
0.3675 	2.73543e-35
0.3682 	1.82638e-35
0.3689 	9.17324e-36
0.3696 	8.27066e-38
0.3703 	4.36096e-38
0.371 	3.61737e-38
0.3717 	2.91302e-38
0.3724 	2.21039e-38
0.3731 	1.50776e-38
0.3738 	8.05133e-39
0.3745 	1.02504e-39
0.3752 	8.06333e-42
0.3759 	6.67631e-42
0.3766 	5.41e-42
0.3773 	4.14792e-42
0.378 	2.88584e-42
0.3787 	1.62376e-42
0.3794 	3.61687e-43
0.3801 	9.91241e-46
0.3808 	8.19571e-46
0.3815 	6.68065e-46
0.3822 	5.17178e-46
0.3829 	3.66291e-46
0.3836 	2.15404e-46
0.3843 	6.45165e-47
0.385 	1.02214e-49
0.3857 	8.44027e-50
0.3864 	6.9189e-50
0.3871 	5.40447e-50
0.3878 	3.89005e-50
0.3885 	2.37562e-50
0.3892 	8.61197e-51
0.3899 	9.36497e-54
0.3906 	7.84947e-54
0.3913 	6.46925e-54
0.392 	5.09567e-54
0.3927 	3.7221e-54
0.3934 	2.34852e-54
0.3941 	9.74939e-55
0.3948 	7.99959e-58
0.3955 	6.80758e-58
0.3962 	5.63972e-58
0.3969 	4.47681e-58
0.3976 	3.31428e-58
0.3983 	2.15175e-58
0.399 	9.89221e-59
0.3997 	6.45155e-62
0.4004 	5.57984e-62
0.4011 	4.64416e-62
0.4018 	3.71322e-62
0.4025 	2.78307e-62
0.4032 	1.85292e-62
0.4039 	9.22778e-63
0.4046 	4.95173e-66
0.4053 	4.38233e-66
0.406 	3.64154e-66
0.4067 	2.93143e-66
0.4074 	2.2222e-66
0.4081 	1.51297e-66
0.4088 	8.0374e-67
0.4095 	9.45093e-68
0.4102 	3.3039e-70
0.4109 	2.74205e-70
0.4116 	2.22151e-70
0.4123 	1.70178e-70
0.413 	1.18204e-70
0.4137 	6.62297e-71
0.4144 	1.42559e-71
0.4151 	1.25751e-74
0.4158 	1.01714e-74
0.4165 	4.90835e-75
0.4172 	1.22453e-75
0.4179 	-2.4593e-75
0.4186 	-6.14313e-75
0.4193 	-9.82695e-75
0.42 	-1.68715e-74
0.4207 	-1.03208e-74
0.4214 	-8.3517e-75
0.4221 	-8.35541e-75
0.4228 	-8.35913e-75
0.4235 	-8.36284e-75
0.4242 	-8.36656e-75
0.4249 	-1.14355e-74
0.4256 	-7.79424e-75
0.4263 	-5.8349e-75
0.427 	-5.8304e-75
0.4277 	-5.82589e-75
0.4284 	-5.82138e-75
0.4291 	-5.81687e-75
0.4298 	-7.26722e-75
0.4305 	-5.61186e-75
0.4312 	-4.03306e-75
0.4319 	-3.91694e-75
0.4326 	-3.91333e-75
0.4333 	-3.90973e-75
0.434 	-3.90612e-75
0.4347 	-4.42358e-75
0.4354 	-3.9607e-75
0.4361 	-2.78724e-75
0.4368 	-2.5421e-75
0.4375 	-2.53958e-75
0.4382 	-2.53706e-75
0.4389 	-2.53454e-75
0.4396 	-2.57354e-75
0.4403 	-2.87283e-75
0.441 	-1.88283e-75
0.4417 	-1.60534e-75
0.4424 	-1.60365e-75
0.4431 	-1.60197e-75
0.4438 	-1.60029e-75
0.4445 	-1.59861e-75
0.4452 	-2.00543e-75
0.4459 	-1.24387e-75
0.4466 	-9.88041e-76
0.4473 	-9.8692e-76
0.448 	-9.858e-76
0.4487 	-9.84679e-76
0.4494 	-9.83558e-76
0.4501 	-1.35193e-75
0.4508 	-8.03032e-76
0.4515 	-5.92124e-76
0.4522 	-5.91391e-76
0.4529 	-5.90658e-76
0.4536 	-5.89925e-76
0.4543 	-5.89192e-76
0.455 	-8.80694e-76
0.4557 	-5.05689e-76
0.4564 	-3.44418e-76
0.4571 	-3.43958e-76
0.4578 	-3.43497e-76
0.4585 	-3.43036e-76
0.4592 	-3.42575e-76
0.4599 	-4.71829e-76
0.4606 	-3.09861e-76
0.4613 	-1.94462e-76
0.462 	-1.94179e-76
0.4627 	-1.93897e-76
0.4634 	-1.93615e-76
0.4641 	-1.93333e-76
0.4648 	-2.43522e-76
0.4655 	-1.84639e-76
0.4662 	-1.11931e-76
0.4669 	-1.06582e-76
0.4676 	-1.06414e-76
0.4683 	-1.06245e-76
0.469 	-1.06077e-76
0.4697 	-1.21105e-76
0.4704 	-1.0844e-76
0.4711 	-6.5738e-77
0.4718 	-5.68042e-77
0.4725 	-5.67065e-77
0.4732 	-5.66089e-77
0.4739 	-5.65112e-77
0.4746 	-5.78422e-77
0.4753 	-6.45487e-77
0.476 	-3.75978e-77
0.4767 	-2.9448e-77
0.4774 	-2.93927e-77
0.4781 	-2.93373e-77
0.4788 	-2.9282e-77
0.4795 	-2.92266e-77
0.4802 	-3.69586e-77
0.4809 	-2.09358e-77
0.4816 	-1.48648e-77
0.4823 	-1.48341e-77
0.483 	-1.48035e-77
0.4837 	-1.47728e-77
0.4844 	-1.47422e-77
0.4851 	-2.04161e-77
0.4858 	-1.13487e-77
0.4865 	-7.31065e-78
0.4872 	-7.29405e-78
0.4879 	-7.27746e-78
0.4886 	-7.26087e-78
0.4893 	-7.24427e-78
0.49 	-1.09033e-77
0.4907 	-5.98827e-78
0.4914 	-3.50478e-78
0.4921 	-3.496e-78
0.4928 	-3.48721e-78
0.4935 	-3.47842e-78
0.4942 	-3.46963e-78
0.4949 	-4.81042e-78
0.4956 	-3.07586e-78
0.4963 	-1.63864e-78
0.497 	-1.63409e-78
0.4977 	-1.62954e-78
0.4984 	-1.62499e-78
0.4991 	-1.62044e-78
0.4998 	-2.05416e-78
0.5005 	-1.53817e-78
0.5012 	-8.00002e-79
0.5019 	-7.45139e-79
0.5026 	-7.42839e-79
0.5033 	-7.40538e-79
0.504 	-7.38237e-79
0.5047 	-8.48096e-79
0.5054 	-7.59617e-79
0.5061 	-4.06002e-79
0.5068 	-3.31612e-79
0.5075 	-3.30477e-79
0.5082 	-3.29341e-79
0.5089 	-3.28205e-79
0.5096 	-3.38035e-79
0.5103 	-3.76935e-79
0.511 	-1.99908e-79
0.5117 	-1.4409e-79
0.5124 	-1.43542e-79
0.5131 	-1.42995e-79
0.5138 	-1.42448e-79
0.5145 	-1.41901e-79
0.5152 	-1.80568e-79
0.5159 	-9.55625e-80
0.5166 	-6.115e-80
0.5173 	-6.08928e-80
0.518 	-6.06356e-80
0.5187 	-6.03783e-80
0.5194 	-6.01211e-80
0.5201 	-8.36998e-80
0.5208 	-4.43802e-80
0.5215 	-2.53555e-80
0.5222 	-2.52374e-80
0.5229 	-2.51194e-80
0.5236 	-2.50014e-80
0.5243 	-2.48833e-80
0.525 	-3.76096e-80
0.5257 	-2.00365e-80
0.5264 	-1.0276e-80
0.5271 	-1.02231e-80
0.5278 	-1.01702e-80
0.5285 	-1.01173e-80
0.5292 	-1.00645e-80
0.5299 	-1.40079e-80
0.5306 	-8.7999e-81
0.5313 	-4.07178e-81
0.532 	-4.04866e-81
0.5327 	-4.02554e-81
0.5334 	-4.00241e-81
0.5341 	-3.97929e-81
0.5348 	-5.0626e-81
0.5355 	-3.76193e-81
0.5362 	-1.72281e-81
0.5369 	-1.56799e-81
0.5376 	-1.55812e-81
0.5383 	-1.54824e-81
0.539 	-1.53837e-81
0.5397 	-1.77339e-81
0.5404 	-1.58917e-81
0.5411 	-7.68255e-82
0.5418 	-5.9403e-82
0.5425 	-5.89913e-82
0.5432 	-5.85797e-82
0.5439 	-5.8168e-82
0.5446 	-6.01167e-82
0.5453 	-6.69483e-82
0.546 	-3.30257e-82
0.5467 	-2.20211e-82
0.5474 	-2.18535e-82
0.5481 	-2.16859e-82
0.5488 	-2.15182e-82
0.5495 	-2.13506e-82
0.5502 	-2.72857e-82
0.5509 	-1.37246e-82
0.5516 	-7.98909e-83
0.5523 	-7.92243e-83
0.553 	-7.85577e-83
0.5537 	-7.78911e-83
0.5544 	-7.72245e-83
0.5551 	-1.07809e-82
0.5558 	-5.52522e-83
0.5565 	-2.837e-83
0.5572 	-2.81111e-83
0.5579 	-2.78522e-83
0.5586 	-2.75933e-83
0.5593 	-2.73344e-83
0.56 	-4.13626e-83
0.5607 	-2.15834e-83
0.5614 	-9.8632e-84
0.5621 	-9.76499e-84
0.5628 	-9.66678e-84
0.5635 	-9.56858e-84
0.5642 	-9.47037e-84
0.5649 	-1.31897e-83
0.5656 	-8.19197e-84
0.5663 	-3.35784e-84
0.567 	-3.32146e-84
0.5677 	-3.28507e-84
0.5684 	-3.24869e-84
0.5691 	-3.2123e-84
0.5698 	-4.0877e-84
0.5705 	-3.02435e-84
0.5712 	-1.24562e-84
0.5719 	-1.10634e-84
0.5726 	-1.09317e-84
0.5733 	-1.08e-84
0.574 	-1.06683e-84
0.5747 	-1.22968e-84
0.5754 	-1.10267e-84
0.5761 	-4.9206e-85
0.5768 	-3.60926e-85
0.5775 	-3.56271e-85
0.5782 	-3.51616e-85
0.5789 	-3.4696e-85
0.5796 	-3.58493e-85
0.5803 	-3.98536e-85
0.581 	-1.85907e-85
0.5817 	-1.15349e-85
0.5824 	-1.13741e-85
0.5831 	-1.12134e-85
0.5838 	-1.10526e-85
0.5845 	-1.08918e-85
0.5852 	-1.39518e-85
0.5859 	-6.75668e-86
0.5866 	-3.61241e-86
0.5873 	-3.55816e-86
0.588 	-3.50392e-86
0.5887 	-3.44968e-86
0.5894 	-3.39544e-86
0.5901 	-4.74121e-86
0.5908 	-2.37177e-86
0.5915 	-1.10893e-86
0.5922 	-1.09105e-86
0.5929 	-1.07316e-86
0.5936 	-1.05528e-86
0.5943 	-1.03739e-86
0.595 	-1.56679e-86
0.5957 	-8.06481e-87
0.5964 	-3.33819e-87
0.5971 	-3.28053e-87
0.5978 	-3.22287e-87
0.5985 	-3.16521e-87
0.5992 	-3.10755e-87
0.5999 	-4.31647e-87
0.6006 	-2.66261e-87
0.6013 	-9.85879e-88
0.602 	-9.67699e-88
0.6027 	-9.49519e-88
0.6034 	-9.31339e-88
0.6041 	-9.13159e-88
0.6048 	-1.15812e-87
0.6055 	-8.55174e-88
0.6062 	-3.2341e-88
0.6069 	-2.80218e-88
0.6076 	-2.74609e-88
0.6083 	-2.68999e-88
0.609 	-2.63389e-88
0.6097 	-3.0241e-88
0.6104 	-2.71374e-88
0.6111 	-1.13974e-88
0.6118 	-7.97092e-89
0.6125 	-7.80141e-89
0.6132 	-7.6319e-89
0.6139 	-7.46239e-89
0.6146 	-7.67769e-89
0.6153 	-8.51823e-89
0.616 	-3.81788e-89
0.6167 	-2.22891e-89
0.6174 	-2.1787e-89
0.6181 	-2.1285e-89
0.6188 	-2.07829e-89
0.6195 	-2.02808e-89
0.6202 	-2.59936e-89
0.6209 	-1.22747e-89
0.6216 	-6.13206e-90
0.6223 	-5.98617e-90
0.623 	-5.84027e-90
0.6237 	-5.69438e-90
0.6244 	-5.54849e-90
0.6251 	-7.73203e-90
0.6258 	-3.8122e-90
0.6265 	-1.66113e-90
0.6272 	-1.6195e-90
0.6279 	-1.57786e-90
0.6286 	-1.53623e-90
0.6293 	-1.4946e-90
0.63 	-2.24695e-90
0.6307 	-1.14895e-90
0.6314 	-4.43438e-91
0.6321 	-4.31758e-91
0.6328 	-4.20078e-91
0.6335 	-4.08398e-91
0.6342 	-3.96718e-91
0.6349 	-5.47949e-91
0.6356 	-3.37205e-91
0.6363 	-1.16736e-91
0.637 	-1.13511e-91
0.6377 	-1.10286e-91
0.6384 	-1.07062e-91
0.6391 	-1.03837e-91
0.6398 	-1.30827e-91
0.6405 	-9.6626e-92
0.6412 	-3.46825e-92
0.6419 	-2.94436e-92
0.6426 	-2.85666e-92
0.6433 	-2.76897e-92
0.644 	-2.68127e-92
0.6447 	-3.05588e-92
0.6454 	-2.74464e-92
0.6461 	-1.11376e-92
0.6468 	-7.53527e-93
0.6475 	-7.30017e-93
0.6482 	-7.06508e-93
0.6489 	-6.82998e-93
0.6496 	-6.97154e-93
0.6503 	-7.7175e-93
0.651 	-3.38688e-93
0.6517 	-1.90068e-93
0.6524 	-1.83854e-93
0.6531 	-1.77641e-93
0.6538 	-1.71427e-93
0.6545 	-1.65213e-93
0.6552 	-2.11455e-93
0.6559 	-9.85877e-94
0.6566 	-4.71129e-94
0.6573 	-4.5495e-94
0.658 	-4.38771e-94
0.6587 	-4.22592e-94
0.6594 	-4.06413e-94
0.6601 	-5.63684e-94
0.6608 	-2.75804e-94
0.6615 	-1.14043e-94
0.6622 	-1.09906e-94
0.6629 	-1.05769e-94
0.6636 	-1.01631e-94
0.6643 	-9.74942e-95
0.665 	-1.45366e-94
0.6657 	-7.40117e-95
0.6664 	-2.66557e-95
0.6671 	-2.56236e-95
0.6678 	-2.45915e-95
0.6685 	-2.35594e-95
0.6692 	-2.25274e-95
0.6699 	-3.07895e-95
0.6706 	-1.8888e-95
0.6713 	-5.90854e-96
0.672 	-5.66052e-96
0.6727 	-5.4125e-96
0.6734 	-5.16448e-96
0.6741 	-4.91646e-96
0.6748 	-6.10886e-96
0.6755 	-4.50808e-96
0.6762 	-1.42634e-96
0.6769 	-1.15399e-96
0.6776 	-1.09775e-96
0.6783 	-1.0415e-96
0.679 	-9.85258e-97
0.6797 	-1.10107e-96
0.6804 	-9.89271e-97
0.6811 	-3.53082e-97
0.6818 	-2.09569e-97
0.6825 	-1.97891e-97
0.6832 	-1.86213e-97
0.6839 	-1.74536e-97
0.6846 	-1.72902e-97
0.6853 	-1.90872e-97
0.686 	-7.40334e-98
0.6867 	-3.23943e-98
0.6874 	-3.02648e-98
0.6881 	-2.81353e-98
0.6888 	-2.60058e-98
0.6895 	-2.38763e-98
0.6902 	-3.03828e-98
0.6909 	-1.26609e-98
0.6916 	-4.02254e-99
0.6923 	-3.69992e-99
0.693 	-3.3773e-99
0.6937 	-3.05469e-99
0.6944 	-2.73207e-99
0.6951 	-3.71528e-99
0.6958 	-1.73206e-99
0.6965 	-5.48443e-100
0.6972 	-5.13698e-100
0.6979 	-4.78954e-100
0.6986 	-4.44209e-100
0.6993 	-4.09465e-100
0.7 	-6.01841e-100
