0 	1
0.0007 	1
0.0014 	1
0.0021 	1
0.0028 	1
0.0035 	1
0.0042 	1
0.0049 	1
0.0056 	1
0.0063 	1
0.007 	1
0.0077 	1
0.0084 	1
0.0091 	1
0.0098 	1
0.0105 	1
0.0112 	1
0.0119 	1
0.0126 	1
0.0133 	1
0.014 	1
0.0147 	1
0.0154 	1
0.0161 	1
0.0168 	1
0.0175 	1
0.0182 	1
0.0189 	1
0.0196 	1
0.0203 	1
0.021 	1
0.0217 	1
0.0224 	1
0.0231 	1
0.0238 	1
0.0245 	1
0.0252 	1
0.0259 	1
0.0266 	1
0.0273 	1
0.028 	1
0.0287 	1
0.0294 	1
0.0301 	1
0.0308 	1
0.0315 	1
0.0322 	1
0.0329 	1
0.0336 	1
0.0343 	1
0.035 	1
0.0357 	1
0.0364 	1
0.0371 	1
0.0378 	1
0.0385 	1
0.0392 	1
0.0399 	1
0.0406 	1
0.0413 	1
0.042 	1
0.0427 	1
0.0434 	1
0.0441 	1
0.0448 	1
0.0455 	1
0.0462 	1
0.0469 	1
0.0476 	1
0.0483 	1
0.049 	1
0.0497 	1
0.0504 	1
0.0511 	1
0.0518 	1
0.0525 	1
0.0532 	1
0.0539 	1
0.0546 	1
0.0553 	1
0.056 	1
0.0567 	1
0.0574 	1
0.0581 	1
0.0588 	1
0.0595 	1
0.0602 	1
0.0609 	1
0.0616 	1
0.0623 	1
0.063 	1
0.0637 	1
0.0644 	1
0.0651 	1
0.0658 	1
0.0665 	1
0.0672 	1
0.0679 	1
0.0686 	1
0.0693 	1
0.07 	1
0.0707 	1
0.0714 	1
0.0721 	1
0.0728 	1
0.0735 	1
0.0742 	1
0.0749 	1
0.0756 	1
0.0763 	1
0.077 	1
0.0777 	1
0.0784 	1
0.0791 	1
0.0798 	1
0.0805 	1
0.0812 	1
0.0819 	1
0.0826 	1
0.0833 	1
0.084 	1
0.0847 	1
0.0854 	1
0.0861 	1
0.0868 	1
0.0875 	1
0.0882 	1
0.0889 	1
0.0896 	1
0.0903 	1
0.091 	1
0.0917 	1
0.0924 	1
0.0931 	1
0.0938 	1
0.0945 	1
0.0952 	1
0.0959 	1
0.0966 	1
0.0973 	1
0.098 	1
0.0987 	1
0.0994 	1
0.1001 	1
0.1008 	1
0.1015 	1
0.1022 	1
0.1029 	1
0.1036 	1
0.1043 	1
0.105 	1
0.1057 	1
0.1064 	1
0.1071 	1
0.1078 	1
0.1085 	1
0.1092 	1
0.1099 	1
0.1106 	1
0.1113 	1
0.112 	1
0.1127 	1
0.1134 	1
0.1141 	1
0.1148 	1
0.1155 	1
0.1162 	1
0.1169 	1
0.1176 	1
0.1183 	1
0.119 	1
0.1197 	1
0.1204 	1
0.1211 	1
0.1218 	1
0.1225 	1
0.1232 	1
0.1239 	1
0.1246 	1
0.1253 	1
0.126 	1
0.1267 	1
0.1274 	1
0.1281 	1
0.1288 	1
0.1295 	1
0.1302 	1
0.1309 	1
0.1316 	1
0.1323 	1
0.133 	1
0.1337 	1
0.1344 	1
0.1351 	1
0.1358 	1
0.1365 	1
0.1372 	1
0.1379 	1
0.1386 	1
0.1393 	1
0.14 	1
0.1407 	1
0.1414 	1
0.1421 	1
0.1428 	1
0.1435 	1
0.1442 	1
0.1449 	1
0.1456 	1
0.1463 	1
0.147 	1
0.1477 	1
0.1484 	1
0.1491 	1
0.1498 	1
0.1505 	1
0.1512 	1
0.1519 	1
0.1526 	1
0.1533 	1
0.154 	1
0.1547 	1
0.1554 	1
0.1561 	1
0.1568 	1
0.1575 	1
0.1582 	1
0.1589 	1
0.1596 	1
0.1603 	1
0.161 	1
0.1617 	1
0.1624 	1
0.1631 	1
0.1638 	1
0.1645 	1
0.1652 	1
0.1659 	1
0.1666 	1
0.1673 	1
0.168 	1
0.1687 	1
0.1694 	1
0.1701 	1
0.1708 	1
0.1715 	1
0.1722 	1
0.1729 	1
0.1736 	1
0.1743 	1
0.175 	1
0.1757 	1
0.1764 	1
0.1771 	1
0.1778 	1
0.1785 	1
0.1792 	1
0.1799 	1
0.1806 	1
0.1813 	1
0.182 	1
0.1827 	1
0.1834 	1
0.1841 	1
0.1848 	1
0.1855 	1
0.1862 	1
0.1869 	1
0.1876 	1
0.1883 	1
0.189 	1
0.1897 	1
0.1904 	1
0.1911 	1
0.1918 	1
0.1925 	1
0.1932 	1
0.1939 	1
0.1946 	1
0.1953 	1
0.196 	1
0.1967 	1
0.1974 	1
0.1981 	1
0.1988 	1
0.1995 	1
0.2002 	1
0.2009 	1
0.2016 	1
0.2023 	1
0.203 	1
0.2037 	1
0.2044 	1
0.2051 	1
0.2058 	1
0.2065 	0.999997
0.2072 	0.999983
0.2079 	0.999961
0.2086 	0.999939
0.2093 	0.999912
0.21 	0.999883
0.2107 	0.999867
0.2114 	0.999679
0.2121 	0.998559
0.2128 	0.996909
0.2135 	0.99526
0.2142 	0.993094
0.2149 	0.990641
0.2156 	0.988637
0.2163 	0.98579
0.217 	0.969477
0.2177 	0.947715
0.2184 	0.925953
0.2191 	0.897763
0.2198 	0.863147
0.2205 	0.830388
0.2212 	0.798373
0.2219 	0.743687
0.2226 	0.682815
0.2233 	0.621944
0.224 	0.552494
0.2247 	0.467605
0.2254 	0.382472
0.2261 	0.297156
0.2268 	0.235899
0.2275 	0.187498
0.2282 	0.139552
0.2289 	0.0981671
0.2296 	0.0808403
0.2303 	0.0623651
0.231 	0.0423586
0.2317 	0.0267778
0.2324 	0.0181222
0.2331 	0.010657
0.2338 	0.00368341
0.2345 	0.00310009
0.2352 	0.00246881
0.2359 	0.00171763
0.2366 	0.00108658
0.2373 	0.000732386
0.238 	0.000463903
0.2387 	0.00019542
0.2394 	0.00014993
0.2401 	0.000120723
0.2408 	8.6312e-05
0.2415 	5.60013e-05
0.2422 	3.80787e-05
0.2429 	2.50977e-05
0.2436 	1.21167e-05
0.2443 	8.15233e-06
0.245 	6.64681e-06
0.2457 	4.85446e-06
0.2464 	3.19268e-06
0.2471 	2.18441e-06
0.2478 	1.4864e-06
0.2485 	7.88387e-07
0.2492 	4.81968e-07
0.2499 	3.93087e-07
0.2506 	2.93172e-07
0.2513 	1.93949e-07
0.252 	1.33212e-07
0.2527 	9.2522e-08
0.2534 	5.18318e-08
0.2541 	2.88623e-08
0.2548 	2.36124e-08
0.2555 	1.78343e-08
0.2562 	1.18448e-08
0.2569 	7.88869e-09
0.2576 	5.54943e-09
0.2583 	3.21018e-09
0.259 	1.6073e-09
0.2597 	1.3298e-09
0.2604 	1.02242e-09
0.2611 	6.92618e-10
0.2618 	4.48089e-10
0.2625 	3.18296e-10
0.2632 	1.95304e-10
0.2639 	9.55393e-11
0.2646 	8.09331e-11
0.2653 	6.48724e-11
0.266 	4.68721e-11
0.2667 	3.23626e-11
0.2674 	2.42657e-11
0.2681 	1.73748e-11
0.2688 	1.08711e-11
0.2695 	9.40037e-12
0.2702 	7.85056e-12
0.2709 	6.10305e-12
0.2716 	4.60728e-12
0.2723 	3.67838e-12
0.273 	2.92326e-12
0.2737 	2.16815e-12
0.2744 	1.87956e-12
0.2751 	1.61972e-12
0.2758 	1.31713e-12
0.2765 	1.04463e-12
0.2772 	8.64462e-13
0.2779 	7.2225e-13
0.2786 	5.80038e-13
0.2793 	5.03792e-13
0.28 	4.45535e-13
0.2807 	3.75432e-13
0.2814 	3.0941e-13
0.2821 	2.63133e-13
0.2828 	2.25413e-13
0.2835 	1.87692e-13
0.2842 	1.62143e-13
0.2849 	1.43356e-13
0.2856 	1.21102e-13
0.2863 	9.87358e-14
0.287 	8.32432e-14
0.2877 	7.0755e-14
0.2884 	5.82669e-14
0.2891 	4.90116e-14
0.2898 	4.2989e-14
0.2905 	3.57542e-14
0.2912 	2.80346e-14
0.2919 	2.25748e-14
0.2926 	1.87889e-14
0.2933 	1.50031e-14
0.294 	1.20347e-14
0.2947 	1.05378e-14
0.2954 	8.71399e-15
0.2961 	6.64508e-15
0.2968 	5.06046e-15
0.2975 	4.11419e-15
0.2982 	3.20671e-15
0.2989 	2.43018e-15
0.2996 	2.13378e-15
0.3003 	1.778e-15
0.301 	1.34304e-15
0.3017 	9.89228e-16
0.3024 	7.8367e-16
0.3031 	6.06251e-16
0.3038 	4.37768e-16
0.3045 	3.8542e-16
0.3052 	3.25523e-16
0.3059 	2.46751e-16
0.3066 	1.79044e-16
0.3073 	1.38879e-16
0.308 	1.07877e-16
0.3087 	7.6875e-17
0.3094 	6.62363e-17
0.3101 	5.65646e-17
0.3108 	4.32979e-17
0.3115 	3.13368e-17
0.3122 	2.39183e-17
0.3129 	1.86974e-17
0.3136 	1.34765e-17
0.3143 	1.11037e-17
0.315 	9.50749e-18
0.3157 	7.39129e-18
0.3164 	5.40163e-18
0.3171 	4.10831e-18
0.3178 	3.23464e-18
0.3185 	2.36096e-18
0.3192 	1.8645e-18
0.3199 	1.57758e-18
0.3206 	1.2549e-18
0.3213 	9.33112e-19
0.322 	7.18482e-19
0.3227 	5.6998e-19
0.3234 	4.21478e-19
0.3241 	3.20859e-19
0.3248 	2.68121e-19
0.3255 	2.14695e-19
0.3262 	1.60993e-19
0.3269 	1.23638e-19
0.3276 	9.78975e-20
0.3283 	7.21568e-20
0.329 	5.23967e-20
0.3297 	4.34009e-20
0.3304 	3.44941e-20
0.3311 	2.56541e-20
0.3318 	1.90981e-20
0.3325 	1.48225e-20
0.3332 	1.06777e-20
0.3339 	7.15587e-21
0.3346 	5.91839e-21
0.3353 	4.67737e-21
0.336 	3.4316e-21
0.3367 	2.45423e-21
0.3374 	1.84387e-21
0.3381 	1.29363e-21
0.3388 	7.7323e-22
0.3395 	6.40573e-22
0.3402 	5.06451e-22
0.3409 	3.68667e-22
0.3416 	2.5418e-22
0.3423 	1.84397e-22
0.343 	1.26624e-22
0.3437 	6.88514e-23
0.3444 	5.43558e-23
0.3451 	4.31001e-23
0.3458 	3.13127e-23
0.3465 	2.09675e-23
0.3472 	1.47009e-23
0.3479 	9.9321e-24
0.3486 	5.16331e-24
0.3493 	3.56965e-24
0.35 	2.84186e-24
0.3507 	2.06657e-24
0.3514 	1.34893e-24
0.3521 	9.14173e-25
0.3528 	6.09647e-25
0.3535 	3.05122e-25
0.3542 	1.73863e-25
0.3549 	1.38858e-25
0.3556 	1.01498e-25
0.3563 	6.4687e-26
0.357 	4.2278e-26
0.3577 	2.79002e-26
0.3584 	1.35224e-26
0.3591 	5.7621e-27
0.3598 	4.61896e-27
0.3605 	3.40215e-27
0.3612 	2.15588e-27
0.3619 	1.33823e-27
0.3626 	8.77712e-28
0.3633 	4.17198e-28
0.364 	1.13245e-28
0.3647 	9.10851e-29
0.3654 	6.77229e-29
0.3661 	4.3459e-29
0.3668 	2.58121e-29
0.3675 	1.65796e-29
0.3682 	7.88343e-30
0.3689 	1.00896e-30
0.3696 	8.1345e-31
0.3703 	6.10921e-31
0.371 	3.99029e-31
0.3717 	2.34009e-31
0.3724 	1.45605e-31
0.3731 	7.13161e-32
0.3738 	2.30427e-33
0.3745 	1.88053e-33
0.3752 	1.44204e-33
0.3759 	9.6669e-34
0.3766 	5.74272e-34
0.3773 	3.5419e-34
0.378 	1.84685e-34
0.3787 	1.51801e-35
0.3794 	2.74102e-36
0.3801 	2.35175e-36
0.3808 	1.78356e-36
0.3815 	1.33639e-36
0.3822 	1.04074e-36
0.3829 	6.77564e-37
0.3836 	3.14386e-37
0.3843 	2.20541e-37
0.385 	2.00146e-37
0.3857 	1.56197e-37
0.3864 	1.19211e-37
0.3871 	9.96463e-38
0.3878 	6.51754e-38
0.3885 	3.07044e-38
0.3892 	1.72738e-38
0.3899 	1.55316e-38
0.3906 	1.22354e-38
0.3913 	8.86867e-39
0.392 	7.57569e-39
0.3927 	4.85962e-39
0.3934 	2.14355e-39
0.3941 	7.56552e-40
0.3948 	6.98543e-40
0.3955 	5.68372e-40
0.3962 	4.09337e-40
0.3969 	3.58537e-40
0.3976 	2.33329e-40
0.3983 	1.08122e-40
0.399 	2.70997e-41
0.3997 	2.56077e-41
0.4004 	2.16078e-41
0.4011 	1.57271e-41
0.4018 	1.35517e-41
0.4025 	9.07434e-42
0.4032 	4.32069e-42
0.4039 	5.83652e-43
0.4046 	5.73906e-43
0.4053 	5.11097e-43
0.406 	3.77539e-43
0.4067 	3.16193e-43
0.4074 	2.23681e-43
0.4081 	1.11047e-43
0.4088 	6.47744e-45
0.4095 	6.72742e-45
0.4102 	6.44685e-45
0.4109 	4.83991e-45
0.4116 	3.94255e-45
0.4123 	2.96927e-45
0.413 	1.54784e-45
0.4137 	1.26406e-46
0.4144 	2.77983e-47
0.4151 	2.9482e-47
0.4158 	2.25028e-47
0.4165 	1.78351e-47
0.4172 	1.43777e-47
0.4179 	7.8931e-48
0.4186 	1.40849e-48
0.4193 	2.25308e-50
0.42 	2.70033e-50
0.4207 	2.09139e-50
0.4214 	1.6085e-50
0.4221 	1.38864e-50
0.4228 	7.99596e-51
0.4235 	2.10557e-51
0.4242 	2.31382e-54
0.4249 	2.90583e-54
0.4256 	2.41669e-54
0.4263 	1.79445e-54
0.427 	1.64983e-54
0.4277 	9.89949e-55
0.4284 	3.30067e-55
0.4291 	1.53879e-58
0.4298 	1.91605e-58
0.4305 	1.69936e-58
0.4312 	1.24508e-58
0.4319 	1.17557e-58
0.4326 	7.30823e-59
0.4333 	2.86078e-59
0.434 	1.96271e-62
0.4347 	2.50237e-62
0.4354 	2.38391e-62
0.4361 	1.77186e-62
0.4368 	1.63346e-62
0.4375 	1.07718e-62
0.4382 	4.74042e-63
0.4389 	1.61144e-66
0.4396 	2.07052e-66
0.4403 	2.10895e-66
0.441 	1.58653e-66
0.4417 	1.39475e-66
0.4424 	9.92607e-67
0.4431 	4.77993e-67
0.4438 	1.46245e-70
0.4445 	1.89735e-70
0.4452 	2.06671e-70
0.4459 	1.57224e-70
0.4466 	1.32121e-70
0.4473 	1.00919e-70
0.448 	5.22059e-71
0.4487 	3.49269e-72
0.4494 	1.7734e-74
0.4501 	2.06711e-74
0.4508 	1.5916e-74
0.4515 	1.28347e-74
0.4522 	1.04735e-74
0.4529 	5.74221e-75
0.4536 	1.0109e-75
0.4543 	-5.80561e-77
0.455 	-1.28264e-76
0.4557 	-5.93495e-77
0.4564 	-5.25927e-78
0.4571 	-5.85689e-78
0.4578 	-7.06672e-78
0.4585 	-8.27655e-78
0.4592 	-6.67175e-77
0.4599 	-1.56952e-76
0.4606 	-9.29493e-77
0.4613 	-9.65318e-78
0.462 	-9.8134e-78
0.4627 	-1.02731e-77
0.4634 	-1.07329e-77
0.4641 	-5.67508e-77
0.4648 	-1.48325e-76
0.4655 	-1.09111e-76
0.4662 	-1.75828e-77
0.4669 	-1.10374e-77
0.4676 	-1.10647e-77
0.4683 	-1.10919e-77
0.469 	-4.22215e-77
0.4697 	-1.29332e-76
0.4704 	-1.16835e-76
0.4711 	-2.96331e-77
0.4718 	-1.09133e-77
0.4725 	-1.08033e-77
0.4732 	-1.06873e-77
0.4739 	-2.7685e-77
0.4746 	-1.07428e-76
0.4753 	-1.18748e-76
0.476 	-3.88368e-77
0.4767 	-1.02563e-77
0.4774 	-1.00678e-77
0.4781 	-9.84275e-78
0.4788 	-1.46406e-77
0.4795 	-8.47225e-77
0.4802 	-1.14691e-76
0.4809 	-4.43774e-77
0.4816 	-9.18161e-78
0.4823 	-8.95674e-78
0.483 	-8.64547e-78
0.4837 	-8.3342e-78
0.4844 	-6.32747e-77
0.4851 	-1.05515e-76
0.4858 	-4.60605e-77
0.4865 	-7.81053e-78
0.4872 	-7.60227e-78
0.4879 	-7.25967e-78
0.4886 	-6.91706e-78
0.4893 	-4.48841e-77
0.49 	-9.32985e-77
0.4907 	-4.46266e-77
0.4914 	-6.3682e-78
0.4921 	-6.21017e-78
0.4928 	-5.8917e-78
0.4935 	-5.57324e-78
0.4942 	-3.03234e-77
0.4949 	-6.89997e-77
0.4956 	-4.1182e-77
0.4963 	-5.05573e-78
0.497 	-4.95177e-78
0.4977 	-4.68339e-78
0.4984 	-4.41501e-78
0.4991 	-1.94385e-77
0.4998 	-4.9753e-77
0.5005 	-3.6629e-77
0.5012 	-6.12969e-78
0.5019 	-3.89408e-78
0.5026 	-3.67918e-78
0.5033 	-3.46429e-78
0.504 	-1.16769e-77
0.5047 	-3.50581e-77
0.5054 	-3.16341e-77
0.5061 	-8.10614e-78
0.5068 	-3.03356e-78
0.5075 	-2.88309e-78
0.5082 	-2.72258e-78
0.5089 	-6.41674e-78
0.5096 	-2.42435e-77
0.5103 	-2.67436e-77
0.511 	-8.80805e-78
0.5117 	-2.38465e-78
0.5124 	-2.30039e-78
0.5131 	-2.19957e-78
0.5138 	-3.07521e-78
0.5145 	-1.66422e-77
0.5152 	-2.24367e-77
0.5159 	-8.8004e-78
0.5166 	-1.97431e-78
0.5173 	-1.94915e-78
0.518 	-1.91836e-78
0.5187 	-1.88756e-78
0.5194 	-1.16268e-77
0.5201 	-1.91161e-77
0.5208 	-8.59808e-78
0.5215 	-1.83528e-78
0.5222 	-1.85944e-78
0.5229 	-1.91206e-78
0.5236 	-1.96468e-78
0.5243 	-8.63333e-78
0.525 	-1.71062e-77
0.5257 	-8.65064e-78
0.5264 	-2.009e-78
0.5271 	-2.06643e-78
0.5278 	-2.21401e-78
0.5285 	-2.36159e-78
0.5292 	-7.17445e-78
0.5299 	-1.4579e-77
0.5306 	-9.34411e-78
0.5313 	-2.52857e-78
0.532 	-2.59607e-78
0.5327 	-2.84177e-78
0.5334 	-3.08748e-78
0.5341 	-6.80648e-78
0.5348 	-1.39986e-77
0.5355 	-1.09916e-77
0.5362 	-3.9049e-78
0.5369 	-3.44623e-78
0.5376 	-3.77499e-78
0.5383 	-4.10376e-78
0.539 	-7.06069e-78
0.5397 	-1.4748e-77
0.5404 	-1.37268e-77
0.5411 	-6.17418e-78
0.5418 	-4.58443e-78
0.5425 	-4.91942e-78
0.5432 	-5.28183e-78
0.5439 	-7.40612e-78
0.5446 	-1.59901e-77
0.5453 	-1.7274e-77
0.546 	-8.82445e-78
0.5467 	-5.82629e-78
0.5474 	-6.0683e-78
0.5481 	-6.3725e-78
0.5488 	-7.32682e-78
0.5495 	-1.67311e-77
0.5502 	-2.07872e-77
0.5509 	-1.1473e-77
0.5516 	-6.82245e-78
0.5523 	-6.91603e-78
0.553 	-7.05684e-78
0.5537 	-7.19765e-78
0.5544 	-1.61804e-77
0.5551 	-2.30836e-77
0.5558 	-1.34293e-77
0.5565 	-7.21949e-78
0.5572 	-7.17726e-78
0.5579 	-7.10054e-78
0.5586 	-7.02381e-78
0.5593 	-1.41826e-77
0.56 	-2.33146e-77
0.5607 	-1.41061e-77
0.5614 	-6.86474e-78
0.5621 	-6.75838e-78
0.5628 	-6.50289e-78
0.5635 	-6.24739e-78
0.5642 	-1.12776e-77
0.5649 	-1.92442e-77
0.5656 	-1.34438e-77
0.5663 	-5.92424e-78
0.567 	-5.82726e-78
0.5677 	-5.49096e-78
0.5684 	-5.15465e-78
0.5691 	-8.24879e-78
0.5698 	-1.47732e-77
0.5705 	-1.18773e-77
0.5712 	-5.21338e-78
0.5719 	-4.68611e-78
0.5726 	-4.35332e-78
0.5733 	-4.02054e-78
0.574 	-5.624e-78
0.5747 	-1.07125e-77
0.5754 	-9.91288e-78
0.5761 	-4.69718e-78
0.5768 	-3.55399e-78
0.5775 	-3.28602e-78
0.5782 	-2.99596e-78
0.5789 	-3.5806e-78
0.5796 	-7.37225e-78
0.5803 	-7.86794e-78
0.581 	-3.96899e-78
0.5817 	-2.55935e-78
0.5824 	-2.37114e-78
0.5831 	-2.135e-78
0.5838 	-2.10796e-78
0.5845 	-4.79861e-78
0.5852 	-5.92741e-78
0.5859 	-3.15159e-78
0.5866 	-1.75335e-78
0.5873 	-1.63201e-78
0.588 	-1.45104e-78
0.5887 	-1.27007e-78
0.5894 	-2.93833e-78
0.5901 	-4.22246e-78
0.5908 	-2.34846e-78
0.5915 	-1.13838e-78
0.5922 	-1.06749e-78
0.5929 	-9.37219e-79
0.5936 	-8.06947e-79
0.5943 	-1.68269e-78
0.595 	-2.83277e-78
0.5957 	-1.63833e-78
0.5964 	-6.97657e-79
0.5971 	-6.60942e-79
0.5978 	-5.73143e-79
0.5985 	-4.85344e-79
0.5992 	-8.95431e-79
0.5999 	-1.58211e-78
0.6006 	-1.06686e-78
0.6013 	-4.01937e-79
0.602 	-3.85793e-79
0.6027 	-3.30582e-79
0.6034 	-2.75371e-79
0.6041 	-4.39612e-79
0.6048 	-8.23292e-79
0.6055 	-6.46365e-79
0.6062 	-2.45195e-79
0.6069 	-2.11422e-79
0.6076 	-1.79144e-79
0.6083 	-1.46866e-79
0.609 	-1.9747e-79
0.6097 	-3.97251e-79
0.6104 	-3.63111e-79
0.6111 	-1.53531e-79
0.6118 	-1.06996e-79
0.6125 	-9.08561e-80
0.6132 	-7.33749e-80
0.6139 	-8.03315e-80
0.6146 	-1.76887e-79
0.6153 	-1.88511e-79
0.616 	-8.68934e-80
0.6167 	-4.99333e-80
0.6174 	-4.29649e-80
0.6181 	-3.42244e-80
0.6188 	-2.91917e-80
0.6195 	-7.23506e-80
0.6202 	-9.0161e-80
0.6209 	-4.45999e-80
0.6216 	-2.15792e-80
0.6223 	-1.88791e-80
0.623 	-1.48572e-80
0.6237 	-1.08353e-80
0.6244 	-2.70667e-80
0.6251 	-3.96241e-80
0.6258 	-2.07914e-80
0.6265 	-8.612e-81
0.6272 	-7.68539e-81
0.6279 	-5.98678e-81
0.6286 	-4.28816e-81
0.6293 	-9.22624e-81
0.63 	-1.59742e-80
0.6307 	-8.81217e-81
0.6314 	-3.16797e-81
0.6321 	-2.89224e-81
0.6328 	-2.23503e-81
0.6335 	-1.57781e-81
0.6342 	-2.85705e-81
0.6349 	-5.21203e-81
0.6356 	-3.4015e-81
0.6363 	-1.07363e-81
0.637 	-1.00535e-81
0.6377 	-7.72561e-82
0.6384 	-5.39774e-82
0.6391 	-8.02358e-82
0.6398 	-1.56029e-81
0.6405 	-1.20016e-81
0.6412 	-3.9281e-82
0.6419 	-3.23173e-82
0.6426 	-2.47601e-82
0.6433 	-1.72029e-82
0.644 	-2.04331e-82
0.6447 	-4.30792e-82
0.6454 	-3.89918e-82
0.6461 	-1.48541e-82
0.6468 	-9.47339e-83
0.6475 	-7.39097e-83
0.6482 	-5.13293e-83
0.6489 	-4.72246e-83
0.6496 	-1.10859e-82
0.6503 	-1.18171e-82
0.651 	-5.03873e-83
0.6517 	-2.57118e-83
0.6524 	-2.07276e-83
0.6531 	-1.44634e-83
0.6538 	-9.87208e-84
0.6545 	-2.70247e-83
0.6552 	-3.40674e-83
0.6559 	-1.58356e-83
0.6566 	-6.62612e-84
0.6573 	-5.53172e-84
0.658 	-3.89477e-84
0.6587 	-2.25782e-84
0.6594 	-6.35246e-84
0.6601 	-9.55379e-84
0.6608 	-4.7504e-84
0.6615 	-1.64601e-84
0.6622 	-1.424e-84
0.6629 	-1.01357e-84
0.6636 	-6.03141e-85
0.6643 	-1.45109e-84
0.665 	-2.6422e-84
0.6657 	-1.38625e-84
0.6664 	-3.97046e-85
0.6671 	-3.55684e-85
0.6678 	-2.55529e-85
0.6685 	-1.55373e-85
0.6692 	-3.17032e-85
0.6699 	-6.24135e-85
0.6706 	-3.91596e-85
0.6713 	-9.19614e-86
0.672 	-8.52017e-86
0.6727 	-6.15015e-86
0.6734 	-3.78012e-86
0.6741 	-6.3373e-86
0.6748 	-1.38214e-85
0.6755 	-1.03649e-85
0.6762 	-2.53207e-86
0.6769 	-1.89325e-86
0.6776 	-1.36585e-86
0.6783 	-8.3845e-87
0.679 	-1.08235e-86
0.6797 	-2.7145e-86
0.6804 	-2.44043e-86
0.6811 	-7.36702e-87
0.6818 	-3.62489e-87
0.6825 	-2.66239e-87
0.6832 	-1.61733e-87
0.6839 	-1.436e-87
0.6846 	-4.42146e-87
0.6853 	-4.79509e-87
0.686 	-1.68629e-87
0.6867 	-5.63554e-88
0.6874 	-4.27204e-88
0.6881 	-2.55539e-88
0.6888 	-1.26294e-88
0.6895 	-5.48417e-88
0.6902 	-7.247e-88
0.6909 	-2.8638e-88
0.6916 	-6.59956e-89
0.6923 	-5.17603e-89
0.693 	-3.04557e-89
0.6937 	-9.15117e-90
0.6944 	-4.53002e-89
0.6951 	-7.40773e-89
0.6958 	-3.21106e-89
0.6965 	-5.05963e-90
0.6972 	-4.12624e-90
0.6979 	-2.40711e-90
0.6986 	-6.87987e-91
0.6993 	-3.35029e-91
0.7 	-3.54634e-91
