0 	1
0.0007 	1
0.0014 	1
0.0021 	1
0.0028 	1
0.0035 	1
0.0042 	1
0.0049 	1
0.0056 	1
0.0063 	1
0.007 	1
0.0077 	1
0.0084 	1
0.0091 	1
0.0098 	1
0.0105 	1
0.0112 	1
0.0119 	1
0.0126 	1
0.0133 	1
0.014 	1
0.0147 	1
0.0154 	1
0.0161 	1
0.0168 	1
0.0175 	1
0.0182 	1
0.0189 	1
0.0196 	1
0.0203 	1
0.021 	1
0.0217 	1
0.0224 	1
0.0231 	1
0.0238 	1
0.0245 	1
0.0252 	1
0.0259 	1
0.0266 	1
0.0273 	1
0.028 	1
0.0287 	1
0.0294 	1
0.0301 	1
0.0308 	1
0.0315 	1
0.0322 	1
0.0329 	1
0.0336 	1
0.0343 	1
0.035 	1
0.0357 	1
0.0364 	1
0.0371 	1
0.0378 	1
0.0385 	1
0.0392 	1
0.0399 	1
0.0406 	1
0.0413 	1
0.042 	1
0.0427 	1
0.0434 	1
0.0441 	1
0.0448 	1
0.0455 	1
0.0462 	1
0.0469 	1
0.0476 	1
0.0483 	1
0.049 	1
0.0497 	1
0.0504 	1
0.0511 	1
0.0518 	1
0.0525 	1
0.0532 	1
0.0539 	1
0.0546 	1
0.0553 	1
0.056 	1
0.0567 	1
0.0574 	1
0.0581 	1
0.0588 	1
0.0595 	1
0.0602 	1
0.0609 	1
0.0616 	1
0.0623 	1
0.063 	1
0.0637 	1
0.0644 	1
0.0651 	1
0.0658 	1
0.0665 	1
0.0672 	1
0.0679 	1
0.0686 	1
0.0693 	1
0.07 	1
0.0707 	1
0.0714 	1
0.0721 	1
0.0728 	1
0.0735 	1
0.0742 	1
0.0749 	1
0.0756 	1
0.0763 	1
0.077 	1
0.0777 	1
0.0784 	1
0.0791 	1
0.0798 	1
0.0805 	1
0.0812 	1
0.0819 	1
0.0826 	1
0.0833 	1
0.084 	1
0.0847 	1
0.0854 	1
0.0861 	1
0.0868 	1
0.0875 	1
0.0882 	1
0.0889 	1
0.0896 	1
0.0903 	1
0.091 	1
0.0917 	1
0.0924 	1
0.0931 	1
0.0938 	1
0.0945 	1
0.0952 	1
0.0959 	1
0.0966 	1
0.0973 	1
0.098 	1
0.0987 	1
0.0994 	1
0.1001 	1
0.1008 	1
0.1015 	1
0.1022 	1
0.1029 	1
0.1036 	1
0.1043 	1
0.105 	1
0.1057 	1
0.1064 	1
0.1071 	1
0.1078 	1
0.1085 	1
0.1092 	1
0.1099 	1
0.1106 	1
0.1113 	1
0.112 	1
0.1127 	1
0.1134 	1
0.1141 	1
0.1148 	1
0.1155 	1
0.1162 	1
0.1169 	1
0.1176 	1
0.1183 	1
0.119 	1
0.1197 	1
0.1204 	1
0.1211 	1
0.1218 	1
0.1225 	1
0.1232 	1
0.1239 	1
0.1246 	1
0.1253 	1
0.126 	1
0.1267 	1
0.1274 	1
0.1281 	1
0.1288 	1
0.1295 	1
0.1302 	1
0.1309 	1
0.1316 	1
0.1323 	1
0.133 	1
0.1337 	1
0.1344 	1
0.1351 	1
0.1358 	1
0.1365 	1
0.1372 	1
0.1379 	1
0.1386 	1
0.1393 	1
0.14 	1
0.1407 	1
0.1414 	1
0.1421 	1
0.1428 	1
0.1435 	1
0.1442 	1
0.1449 	1
0.1456 	1
0.1463 	1
0.147 	1
0.1477 	1
0.1484 	1
0.1491 	1
0.1498 	1
0.1505 	1
0.1512 	1
0.1519 	1
0.1526 	1
0.1533 	1
0.154 	1
0.1547 	1
0.1554 	1
0.1561 	1
0.1568 	1
0.1575 	1
0.1582 	1
0.1589 	1
0.1596 	1
0.1603 	1
0.161 	1
0.1617 	1
0.1624 	1
0.1631 	1
0.1638 	1
0.1645 	1
0.1652 	1
0.1659 	1
0.1666 	1
0.1673 	1
0.168 	1
0.1687 	1
0.1694 	1
0.1701 	1
0.1708 	1
0.1715 	1
0.1722 	1
0.1729 	1
0.1736 	1
0.1743 	1
0.175 	1
0.1757 	1
0.1764 	1
0.1771 	1
0.1778 	1
0.1785 	1
0.1792 	1
0.1799 	1
0.1806 	1
0.1813 	1
0.182 	1
0.1827 	1
0.1834 	1
0.1841 	1
0.1848 	1
0.1855 	1
0.1862 	1
0.1869 	1
0.1876 	1
0.1883 	1
0.189 	1
0.1897 	1
0.1904 	1
0.1911 	1
0.1918 	1
0.1925 	1
0.1932 	1
0.1939 	1
0.1946 	1
0.1953 	1
0.196 	1
0.1967 	1
0.1974 	1
0.1981 	1
0.1988 	1
0.1995 	1
0.2002 	1
0.2009 	1
0.2016 	1
0.2023 	1
0.203 	1
0.2037 	1
0.2044 	1
0.2051 	1
0.2058 	1
0.2065 	1
0.2072 	1
0.2079 	1
0.2086 	1
0.2093 	1
0.21 	1
0.2107 	1
0.2114 	1
0.2121 	1
0.2128 	1
0.2135 	1
0.2142 	1
0.2149 	1
0.2156 	1
0.2163 	1
0.217 	1
0.2177 	1
0.2184 	1
0.2191 	1
0.2198 	1
0.2205 	1
0.2212 	1
0.2219 	1
0.2226 	1
0.2233 	1
0.224 	1
0.2247 	1
0.2254 	1
0.2261 	1
0.2268 	1
0.2275 	1
0.2282 	1
0.2289 	1
0.2296 	1
0.2303 	1
0.231 	1
0.2317 	1
0.2324 	1
0.2331 	1
0.2338 	1
0.2345 	1
0.2352 	1
0.2359 	1
0.2366 	1
0.2373 	1
0.238 	1
0.2387 	1
0.2394 	1
0.2401 	1
0.2408 	1
0.2415 	1
0.2422 	1
0.2429 	1
0.2436 	1
0.2443 	1
0.245 	1
0.2457 	1
0.2464 	1
0.2471 	1
0.2478 	1
0.2485 	1
0.2492 	1
0.2499 	1
0.2506 	1
0.2513 	1
0.252 	1
0.2527 	1
0.2534 	1
0.2541 	1
0.2548 	1
0.2555 	1
0.2562 	1
0.2569 	1
0.2576 	1
0.2583 	0.999999
0.259 	0.999997
0.2597 	0.999996
0.2604 	0.999996
0.2611 	0.999997
0.2618 	0.99997
0.2625 	0.999936
0.2632 	0.999746
0.2639 	0.999487
0.2646 	0.999201
0.2653 	0.999056
0.266 	0.999097
0.2667 	0.997747
0.2674 	0.995623
0.2681 	0.99068
0.2688 	0.983491
0.2695 	0.974292
0.2702 	0.966552
0.2709 	0.962462
0.2716 	0.948554
0.2723 	0.92483
0.273 	0.893475
0.2737 	0.852017
0.2744 	0.792334
0.2751 	0.732353
0.2758 	0.678994
0.2765 	0.623185
0.2772 	0.562966
0.2779 	0.502595
0.2786 	0.441848
0.2793 	0.375713
0.28 	0.308108
0.2807 	0.237729
0.2814 	0.172598
0.2821 	0.126709
0.2828 	0.0833482
0.2835 	0.0551811
0.2842 	0.0427543
0.2849 	0.0390721
0.2856 	0.030304
0.2863 	0.0208302
0.287 	0.0131993
0.2877 	0.00556848
0.2884 	0.00335451
0.2891 	0.00213822
0.2898 	0.00191275
0.2905 	0.00152482
0.2912 	0.00107192
0.2919 	0.000717288
0.2926 	0.000370211
0.2933 	0.000218034
0.294 	0.000136687
0.2947 	0.000123266
0.2954 	0.000100656
0.2961 	7.11541e-05
0.2968 	4.68776e-05
0.2975 	2.40262e-05
0.2982 	1.23422e-05
0.2989 	6.62134e-06
0.2996 	6.11899e-06
0.3003 	5.1955e-06
0.301 	3.71046e-06
0.3017 	2.42371e-06
0.3024 	1.24713e-06
0.3031 	5.54158e-07
0.3038 	2.524e-07
0.3045 	2.36774e-07
0.3052 	2.08959e-07
0.3059 	1.50668e-07
0.3066 	9.80276e-08
0.3073 	5.10369e-08
0.308 	1.89979e-08
0.3087 	7.33803e-09
0.3094 	6.16566e-09
0.3101 	5.63138e-09
0.3108 	4.08548e-09
0.3115 	2.64218e-09
0.3122 	1.38355e-09
0.3129 	3.95659e-10
0.3136 	1.06346e-10
0.3143 	4.25613e-11
0.315 	4.02825e-11
0.3157 	3.14118e-11
0.3164 	2.29028e-11
0.3171 	1.57194e-11
0.3178 	9.28257e-12
0.3185 	7.6125e-12
0.3192 	7.02216e-12
0.3199 	7.03165e-12
0.3206 	7.0655e-12
0.3213 	7.09488e-12
0.322 	7.01347e-12
0.3227 	6.93206e-12
0.3234 	6.7735e-12
0.3241 	6.55513e-12
0.3248 	6.2776e-12
0.3255 	6.01963e-12
0.3262 	5.76948e-12
0.3269 	5.5328e-12
0.3276 	5.29716e-12
0.3283 	5.02337e-12
0.329 	4.74806e-12
0.3297 	4.48238e-12
0.3304 	4.20927e-12
0.3311 	3.93059e-12
0.3318 	3.67956e-12
0.3325 	3.43607e-12
0.3332 	3.20525e-12
0.3339 	2.98722e-12
0.3346 	2.79653e-12
0.3353 	2.59224e-12
0.336 	2.36982e-12
0.3367 	2.16828e-12
0.3374 	1.97835e-12
0.3381 	1.8092e-12
0.3388 	1.65868e-12
0.3395 	1.53796e-12
0.3402 	1.40603e-12
0.3409 	1.24608e-12
0.3416 	1.10114e-12
0.3423 	9.71214e-13
0.343 	8.58554e-13
0.3437 	7.70129e-13
0.3444 	7.09164e-13
0.3451 	6.45746e-13
0.3458 	5.54939e-13
0.3465 	4.71005e-13
0.3472 	3.9944e-13
0.3479 	3.36213e-13
0.3486 	2.9529e-13
0.3493 	2.69206e-13
0.35 	2.47168e-13
0.3507 	2.0653e-13
0.3514 	1.67841e-13
0.3521 	1.363e-13
0.3528 	1.06862e-13
0.3535 	9.1715e-14
0.3542 	8.22853e-14
0.3549 	7.60315e-14
0.3556 	6.2914e-14
0.3563 	4.88848e-14
0.357 	3.78748e-14
0.3577 	2.68649e-14
0.3584 	2.23397e-14
0.3591 	1.94991e-14
0.3598 	1.82399e-14
0.3605 	1.51663e-14
0.3612 	1.13671e-14
0.3619 	8.35892e-15
0.3626 	5.41159e-15
0.3633 	4.11511e-15
0.364 	3.42591e-15
0.3647 	3.26576e-15
0.3654 	2.77377e-15
0.3661 	2.03289e-15
0.3668 	1.41606e-15
0.3675 	8.33056e-16
0.3682 	5.45123e-16
0.3689 	4.1806e-16
0.3696 	4.09639e-16
0.3703 	3.61997e-16
0.371 	2.62062e-16
0.3717 	1.74599e-16
0.3724 	9.40665e-17
0.3731 	4.83144e-17
0.3738 	3.20099e-17
0.3745 	3.26667e-17
0.3752 	3.07027e-17
0.3759 	2.21868e-17
0.3766 	1.43788e-17
0.3773 	7.27861e-18
0.378 	2.59735e-18
0.3787 	1.413e-18
0.3794 	1.43131e-18
0.3801 	1.47001e-18
0.3808 	1.07599e-18
0.3815 	7.00115e-19
0.3822 	3.56886e-19
0.3829 	9.37872e-20
0.3836 	5.28939e-20
0.3843 	4.6342e-20
0.385 	4.91559e-20
0.3857 	3.9104e-20
0.3864 	2.92969e-20
0.3871 	2.03874e-20
0.3878 	1.23726e-20
0.3885 	1.08459e-20
0.3892 	9.94994e-21
0.3899 	9.40429e-21
0.3906 	7.89905e-21
0.3913 	6.2596e-21
0.392 	4.95446e-21
0.3927 	3.64931e-21
0.3934 	3.14085e-21
0.3941 	2.83304e-21
0.3948 	2.70743e-21
0.3955 	2.2501e-21
0.3962 	1.66009e-21
0.3969 	1.18515e-21
0.3976 	7.19064e-22
0.3983 	5.3457e-22
0.399 	4.50951e-22
0.3997 	4.47666e-22
0.4004 	3.85474e-22
0.4011 	2.79103e-22
0.4018 	1.87782e-22
0.4025 	1.00566e-22
0.4032 	6.10266e-23
0.4039 	4.70467e-23
0.4046 	4.81303e-23
0.4053 	4.34951e-23
0.406 	3.12348e-23
0.4067 	2.02161e-23
0.4074 	9.88708e-24
0.4081 	4.26918e-24
0.4088 	2.70861e-24
0.4095 	2.94059e-24
0.4102 	2.87657e-24
0.4109 	2.07256e-24
0.4116 	1.31551e-24
0.4123 	6.05428e-25
0.413 	1.48302e-25
0.4137 	6.73911e-26
0.4144 	7.2579e-26
0.4151 	7.96281e-26
0.4158 	5.81082e-26
0.4165 	3.71211e-26
0.4172 	1.7093e-26
0.4179 	1.90088e-27
0.4186 	5.99364e-28
0.4193 	4.03119e-28
0.42 	5.08309e-28
0.4207 	3.7634e-28
0.4214 	2.4537e-28
0.4221 	1.18061e-28
0.4228 	4.92388e-30
0.4235 	1.44503e-30
0.4242 	2.57702e-31
0.4249 	3.43422e-31
0.4256 	2.76519e-31
0.4263 	1.8433e-31
0.427 	9.41165e-32
0.4277 	3.90266e-33
0.4284 	4.32702e-34
0.4291 	1.11101e-35
0.4298 	1.52369e-35
0.4305 	1.33648e-35
0.4312 	9.09314e-36
0.4319 	4.91768e-36
0.4326 	7.49627e-37
0.4333 	1.23728e-38
0.434 	2.45556e-40
0.4347 	3.28358e-40
0.4354 	3.09823e-40
0.4361 	2.15285e-40
0.4368 	1.2299e-40
0.4375 	3.13055e-41
0.4382 	1.21229e-42
0.4389 	2.00706e-44
0.4396 	2.76338e-44
0.4403 	2.8397e-44
0.441 	2.00938e-44
0.4417 	1.19372e-44
0.4424 	3.86219e-45
0.4431 	9.04531e-47
0.4438 	1.29462e-48
0.4445 	1.72172e-48
0.4452 	1.87608e-48
0.4459 	1.3486e-48
0.4466 	8.325e-49
0.4473 	3.27785e-49
0.448 	1.69801e-50
0.4487 	2.46707e-51
0.4494 	1.35985e-51
0.4501 	1.24543e-51
0.4508 	9.00632e-52
0.4515 	5.81965e-52
0.4522 	3.10333e-52
0.4529 	9.00357e-53
0.4536 	2.22562e-53
0.4543 	6.97352e-54
0.455 	6.00805e-54
0.4557 	4.38638e-54
0.4564 	2.85721e-54
0.4571 	1.66714e-54
0.4578 	5.62322e-55
0.4585 	1.60902e-55
0.4592 	1.62395e-56
0.4599 	1.42184e-56
0.4606 	1.07056e-56
0.4613 	7.01039e-57
0.462 	4.17473e-57
0.4627 	1.33906e-57
0.4634 	4.29253e-58
0.4641 	9.69931e-60
0.4648 	9.21196e-60
0.4655 	7.34059e-60
0.4662 	4.91561e-60
0.4669 	2.90587e-60
0.4676 	9.28065e-61
0.4683 	2.52534e-61
0.469 	1.26075e-63
0.4697 	1.30403e-63
0.4704 	1.1222e-63
0.4711 	7.7153e-64
0.4718 	4.58827e-64
0.4725 	1.5648e-64
0.4732 	3.16423e-65
0.4739 	1.23644e-67
0.4746 	1.31091e-67
0.4753 	1.1993e-67
0.476 	8.396e-68
0.4767 	5.11005e-68
0.4774 	1.9969e-68
0.4781 	3.45847e-69
0.4788 	1.19804e-71
0.4795 	1.30196e-71
0.4802 	1.27276e-71
0.4809 	9.10749e-72
0.4816 	5.6846e-72
0.4823 	2.45895e-72
0.483 	3.59474e-73
0.4837 	2.49026e-74
0.4844 	-1.2056e-74
0.4851 	-2.21351e-74
0.4858 	-8.29412e-75
0.4865 	4.9332e-76
0.4872 	1.84432e-76
0.4879 	-5.62979e-77
0.4886 	-8.79577e-77
0.4893 	-1.602e-74
0.49 	-3.62884e-74
0.4907 	-1.60289e-74
0.4914 	-1.11924e-76
0.4921 	-1.1729e-76
0.4928 	-1.22449e-76
0.4935 	-1.25796e-76
0.4942 	-1.68651e-74
0.4949 	-4.2902e-74
0.4956 	-2.43113e-74
0.4963 	-1.42251e-76
0.497 	-1.47212e-76
0.4977 	-1.52173e-76
0.4984 	-1.55163e-76
0.4991 	-1.57939e-74
0.4998 	-4.70683e-74
0.5005 	-3.367e-74
0.5012 	-2.4028e-75
0.5019 	-1.73457e-76
0.5026 	-1.77754e-76
0.5033 	-1.80403e-76
0.504 	-1.28644e-74
0.5047 	-4.83752e-74
0.5054 	-4.33054e-74
0.5061 	-7.80005e-75
0.5068 	-1.94417e-76
0.5075 	-1.9774e-76
0.5082 	-1.9984e-76
0.5089 	-8.41974e-75
0.5096 	-4.67735e-74
0.5103 	-5.22541e-74
0.511 	-1.39039e-74
0.5117 	-2.08741e-76
0.5124 	-2.10845e-76
0.5131 	-2.12184e-76
0.5138 	-3.03943e-75
0.5145 	-4.26115e-74
0.5152 	-5.95714e-74
0.5159 	-2.00006e-74
0.5166 	-2.15647e-76
0.5173 	-2.16397e-76
0.518 	-2.16787e-76
0.5187 	-2.16601e-76
0.5194 	-3.65567e-74
0.5201 	-6.45105e-74
0.5208 	-2.53742e-74
0.5215 	-2.15042e-76
0.5222 	-2.14438e-76
0.5229 	-2.13753e-76
0.5236 	-2.12814e-76
0.5243 	-2.94412e-74
0.525 	-6.6641e-74
0.5257 	-2.94385e-74
0.5264 	-2.07512e-76
0.5271 	-2.05705e-76
0.5278 	-2.03923e-76
0.5285 	-2.02378e-76
0.5292 	-2.20979e-74
0.5299 	-5.61584e-74
0.5306 	-3.18259e-74
0.5313 	-1.94233e-76
0.532 	-1.91517e-76
0.5327 	-1.88802e-76
0.5334 	-1.86798e-76
0.5341 	-1.52342e-74
0.5348 	-4.53309e-74
0.5355 	-3.24286e-74
0.5362 	-2.3267e-75
0.5369 	-1.7358e-76
0.5376 	-1.70339e-76
0.5383 	-1.6794e-76
0.539 	-9.353e-75
0.5397 	-3.5075e-74
0.5404 	-3.13972e-74
0.5411 	-5.66945e-75
0.5418 	-1.53708e-76
0.5425 	-1.50303e-76
0.5432 	-1.47662e-76
0.5439 	-4.71624e-75
0.5446 	-2.60444e-74
0.5453 	-2.90889e-74
0.546 	-7.75488e-75
0.5467 	-1.33497e-76
0.5474 	-1.30183e-76
0.5481 	-1.27463e-76
0.5488 	-1.35572e-75
0.5495 	-1.85794e-74
0.5502 	-2.59594e-74
0.5509 	-8.7302e-75
0.5516 	-1.14096e-76
0.5523 	-1.11016e-76
0.553 	-1.08342e-76
0.5537 	-1.06334e-76
0.5544 	-1.27343e-74
0.5551 	-2.24474e-74
0.5558 	-8.84294e-75
0.5565 	-9.62092e-77
0.5572 	-9.34284e-77
0.5579 	-9.0882e-77
0.5586 	-8.9096e-77
0.5593 	-8.37299e-75
0.56 	-1.89166e-74
0.5607 	-8.36851e-75
0.5614 	-8.02092e-77
0.5621 	-7.7738e-77
0.5628 	-7.5352e-77
0.5635 	-7.38065e-77
0.5642 	-5.25763e-75
0.5649 	-1.33222e-74
0.5656 	-7.55847e-75
0.5663 	-6.61923e-77
0.567 	-6.40164e-77
0.5677 	-6.18404e-77
0.5684 	-6.04858e-77
0.5691 	-3.11073e-75
0.5698 	-9.21251e-75
0.5705 	-6.59511e-75
0.5712 	-4.90027e-76
0.5719 	-5.22368e-77
0.5726 	-5.03871e-77
0.5733 	-4.91485e-77
0.574 	-1.67562e-75
0.5747 	-6.23171e-75
0.5754 	-5.57927e-75
0.5761 	-1.02044e-75
0.5768 	-4.23973e-77
0.5775 	-4.09332e-77
0.5782 	-3.98467e-77
0.5789 	-7.53862e-76
0.5796 	-4.0892e-75
0.5803 	-4.5647e-75
0.581 	-1.22711e-75
0.5817 	-3.43894e-77
0.5824 	-3.32711e-77
0.5831 	-3.23548e-77
0.5838 	-2.01346e-76
0.5845 	-2.57667e-75
0.5852 	-3.59413e-75
0.5859 	-1.21691e-75
0.5866 	-2.78353e-77
0.5873 	-2.68938e-77
0.588 	-2.60807e-77
0.5887 	-2.54817e-77
0.5894 	-1.54425e-75
0.5901 	-2.71233e-75
0.5908 	-1.07508e-75
0.5915 	-2.22265e-77
0.5922 	-2.12956e-77
0.5929 	-2.04663e-77
0.5936 	-1.99739e-77
0.5943 	-8.74245e-76
0.595 	-1.96163e-75
0.5957 	-8.72884e-76
0.5964 	-1.72302e-77
0.5971 	-1.62528e-77
0.5978 	-1.53267e-77
0.5985 	-1.49332e-77
0.5992 	-4.64511e-76
0.5999 	-1.16407e-75
0.6006 	-6.6345e-76
0.6013 	-1.27762e-77
0.602 	-1.18179e-77
0.6027 	-1.08595e-77
0.6034 	-1.05245e-77
0.6041 	-2.28774e-76
0.6048 	-6.65571e-76
0.6055 	-4.77791e-76
0.6062 	-4.01805e-77
0.6069 	-8.16343e-78
0.6076 	-7.34567e-78
0.6083 	-7.01289e-78
0.609 	-1.01617e-76
0.6097 	-3.66892e-76
0.6104 	-3.28673e-76
0.6111 	-6.28322e-77
0.6118 	-5.38496e-78
0.6125 	-4.77212e-78
0.6132 	-4.46844e-78
0.6139 	-3.79898e-77
0.6146 	-1.94946e-76
0.6153 	-2.17209e-76
0.616 	-5.98797e-77
0.6167 	-3.41962e-78
0.6174 	-2.99768e-78
0.6181 	-2.74558e-78
0.6188 	-9.13046e-78
0.6195 	-9.97117e-77
0.6202 	-1.38465e-76
0.6209 	-4.76485e-77
0.6216 	-2.10311e-78
0.6223 	-1.82872e-78
0.623 	-1.63509e-78
0.6237 	-1.57827e-78
0.6244 	-4.89638e-77
0.6251 	-8.53969e-77
0.6258 	-3.42186e-77
0.6265 	-1.25732e-78
0.6272 	-1.08651e-78
0.6279 	-9.46872e-79
0.6286 	-9.12834e-79
0.6293 	-2.2981e-77
0.63 	-5.1077e-77
0.6307 	-2.28964e-77
0.6314 	-7.32455e-79
0.6321 	-6.29892e-79
0.6328 	-5.34331e-79
0.6335 	-5.14536e-79
0.6342 	-1.02314e-77
0.6349 	-2.53576e-77
0.6356 	-1.45116e-77
0.6363 	-4.16505e-79
0.637 	-3.56811e-79
0.6377 	-2.97117e-79
0.6384 	-2.83073e-79
0.6391 	-4.26196e-78
0.6398 	-1.22309e-77
0.6405 	-8.79628e-78
0.6412 	-8.0021e-79
0.6419 	-1.97699e-79
0.6426 	-1.63921e-79
0.6433 	-1.52175e-79
0.644 	-1.61626e-78
0.6447 	-5.72681e-78
0.6454 	-5.13115e-78
0.6461 	-1.00586e-78
0.6468 	-1.07239e-79
0.6475 	-8.86246e-80
0.6482 	-8.00263e-80
0.6489 	-5.22544e-79
0.6496 	-2.5998e-78
0.6503 	-2.89319e-78
0.651 	-8.08098e-79
0.6517 	-5.69915e-80
0.6524 	-4.69865e-80
0.6531 	-4.12082e-80
0.6538 	-1.13098e-79
0.6545 	-1.14223e-78
0.6552 	-1.58212e-78
0.6559 	-5.4892e-79
0.6566 	-2.96945e-80
0.6573 	-2.44418e-80
0.658 	-2.07943e-80
0.6587 	-1.98981e-80
0.6594 	-4.84271e-79
0.6601 	-8.41234e-79
0.6608 	-3.39005e-79
0.6615 	-1.51796e-80
0.6622 	-1.2482e-80
0.6629 	-1.02906e-80
0.6636 	-9.83979e-81
0.6643 	-1.97176e-79
0.665 	-4.35726e-79
0.6657 	-1.96147e-79
0.6664 	-7.61592e-81
0.6671 	-6.25949e-81
0.6678 	-4.99623e-81
0.6685 	-4.77397e-81
0.6692 	-7.64891e-80
0.6699 	-1.88169e-79
0.6706 	-1.07968e-79
0.6713 	-3.75044e-81
0.672 	-3.08165e-81
0.6727 	-2.41286e-81
0.6734 	-2.27111e-81
0.6741 	-2.786e-80
0.6748 	-7.91451e-80
0.6755 	-5.6994e-80
0.6762 	-5.46834e-81
0.6769 	-1.48693e-81
0.6776 	-1.16277e-81
0.6783 	-1.05592e-81
0.679 	-9.2401e-81
0.6797 	-3.22478e-80
0.6804 	-2.88961e-80
0.6811 	-5.77494e-81
0.6818 	-6.98442e-82
0.6825 	-5.4323e-82
0.6832 	-4.73675e-82
0.6839 	-2.58277e-81
0.6846 	-1.25133e-80
0.6853 	-1.39091e-80
0.686 	-3.92543e-81
0.6867 	-3.12365e-82
0.6874 	-2.38527e-82
0.6881 	-1.9663e-82
0.6888 	-4.66622e-82
0.6895 	-4.39201e-81
0.6902 	-6.06726e-81
0.6909 	-2.11717e-81
0.6916 	-1.25077e-82
0.6923 	-9.09848e-83
0.693 	-6.75523e-83
0.6937 	-6.25152e-83
0.6944 	-1.21887e-81
0.6951 	-2.10716e-81
0.6958 	-8.50995e-82
0.6965 	-3.88615e-83
0.6972 	-2.59787e-83
0.6979 	-1.55686e-83
0.6986 	-1.37265e-83
0.6993 	-1.14176e-83
0.7 	-8.98137e-84
