0 	1
0.0007 	1
0.0014 	1
0.0021 	1
0.0028 	1
0.0035 	1
0.0042 	1
0.0049 	1
0.0056 	1
0.0063 	1
0.007 	1
0.0077 	1
0.0084 	1
0.0091 	1
0.0098 	1
0.0105 	1
0.0112 	1
0.0119 	1
0.0126 	1
0.0133 	1
0.014 	1
0.0147 	1
0.0154 	1
0.0161 	1
0.0168 	1
0.0175 	1
0.0182 	1
0.0189 	1
0.0196 	1
0.0203 	1
0.021 	1
0.0217 	1
0.0224 	1
0.0231 	1
0.0238 	1
0.0245 	1
0.0252 	1
0.0259 	1
0.0266 	1
0.0273 	1
0.028 	1
0.0287 	1
0.0294 	1
0.0301 	1
0.0308 	1
0.0315 	1
0.0322 	1
0.0329 	1
0.0336 	1
0.0343 	1
0.035 	1
0.0357 	1
0.0364 	1
0.0371 	1
0.0378 	1
0.0385 	1
0.0392 	1
0.0399 	1
0.0406 	1
0.0413 	1
0.042 	1
0.0427 	1
0.0434 	1
0.0441 	1
0.0448 	1
0.0455 	1
0.0462 	1
0.0469 	1
0.0476 	1
0.0483 	1
0.049 	1
0.0497 	1
0.0504 	1
0.0511 	1
0.0518 	1
0.0525 	1
0.0532 	1
0.0539 	1
0.0546 	1
0.0553 	1
0.056 	1
0.0567 	1
0.0574 	1
0.0581 	1
0.0588 	1
0.0595 	1
0.0602 	1
0.0609 	1
0.0616 	1
0.0623 	1
0.063 	1
0.0637 	1
0.0644 	1
0.0651 	1
0.0658 	1
0.0665 	1
0.0672 	1
0.0679 	1
0.0686 	1
0.0693 	1
0.07 	1
0.0707 	1
0.0714 	1
0.0721 	1
0.0728 	1
0.0735 	1
0.0742 	1
0.0749 	1
0.0756 	1
0.0763 	1
0.077 	1
0.0777 	1
0.0784 	1
0.0791 	1
0.0798 	1
0.0805 	1
0.0812 	1
0.0819 	1
0.0826 	1
0.0833 	1
0.084 	1
0.0847 	1
0.0854 	1
0.0861 	1
0.0868 	1
0.0875 	1
0.0882 	1
0.0889 	1
0.0896 	1
0.0903 	1
0.091 	1
0.0917 	1
0.0924 	1
0.0931 	1
0.0938 	1
0.0945 	1
0.0952 	1
0.0959 	1
0.0966 	1
0.0973 	1
0.098 	1
0.0987 	1
0.0994 	1
0.1001 	1
0.1008 	1
0.1015 	1
0.1022 	1
0.1029 	1
0.1036 	1
0.1043 	1
0.105 	1
0.1057 	1
0.1064 	1
0.1071 	1
0.1078 	1
0.1085 	1
0.1092 	1
0.1099 	1
0.1106 	1
0.1113 	1
0.112 	1
0.1127 	1
0.1134 	1
0.1141 	1
0.1148 	1
0.1155 	1
0.1162 	1
0.1169 	1
0.1176 	1
0.1183 	1
0.119 	1
0.1197 	1
0.1204 	1
0.1211 	1
0.1218 	1
0.1225 	1
0.1232 	1
0.1239 	1
0.1246 	1
0.1253 	1
0.126 	1
0.1267 	1
0.1274 	1
0.1281 	1
0.1288 	1
0.1295 	1
0.1302 	1
0.1309 	1
0.1316 	1
0.1323 	1
0.133 	1
0.1337 	1
0.1344 	1
0.1351 	1
0.1358 	1
0.1365 	1
0.1372 	1
0.1379 	1
0.1386 	1
0.1393 	1
0.14 	1
0.1407 	1
0.1414 	1
0.1421 	1
0.1428 	1
0.1435 	1
0.1442 	1
0.1449 	1
0.1456 	1
0.1463 	1
0.147 	1
0.1477 	1
0.1484 	1
0.1491 	1
0.1498 	1
0.1505 	1
0.1512 	1
0.1519 	1
0.1526 	1
0.1533 	1
0.154 	1
0.1547 	1
0.1554 	1
0.1561 	1
0.1568 	1
0.1575 	1
0.1582 	1
0.1589 	1
0.1596 	1
0.1603 	1
0.161 	1
0.1617 	1
0.1624 	1
0.1631 	1
0.1638 	1
0.1645 	1
0.1652 	1
0.1659 	1
0.1666 	1
0.1673 	1
0.168 	1
0.1687 	1
0.1694 	1
0.1701 	1
0.1708 	1
0.1715 	1
0.1722 	1
0.1729 	1
0.1736 	1
0.1743 	1
0.175 	1
0.1757 	1
0.1764 	1
0.1771 	1
0.1778 	1
0.1785 	1
0.1792 	1
0.1799 	1
0.1806 	1
0.1813 	1
0.182 	1
0.1827 	1
0.1834 	1
0.1841 	1
0.1848 	1
0.1855 	1
0.1862 	1
0.1869 	1
0.1876 	1
0.1883 	1
0.189 	1
0.1897 	1
0.1904 	1
0.1911 	1
0.1918 	1
0.1925 	1
0.1932 	1
0.1939 	1
0.1946 	1
0.1953 	1
0.196 	1
0.1967 	1
0.1974 	1
0.1981 	1
0.1988 	1
0.1995 	1
0.2002 	1
0.2009 	1
0.2016 	1
0.2023 	1
0.203 	1
0.2037 	1
0.2044 	1
0.2051 	1
0.2058 	1
0.2065 	1
0.2072 	1
0.2079 	1
0.2086 	1
0.2093 	1
0.21 	1
0.2107 	1
0.2114 	1
0.2121 	1
0.2128 	1
0.2135 	1
0.2142 	1
0.2149 	1
0.2156 	1
0.2163 	1
0.217 	1
0.2177 	1
0.2184 	1
0.2191 	1
0.2198 	1
0.2205 	1
0.2212 	1
0.2219 	1
0.2226 	1
0.2233 	1
0.224 	1
0.2247 	1
0.2254 	1
0.2261 	1
0.2268 	1
0.2275 	1
0.2282 	1
0.2289 	1
0.2296 	1
0.2303 	1
0.231 	1
0.2317 	1
0.2324 	1
0.2331 	1
0.2338 	1
0.2345 	1
0.2352 	1
0.2359 	1
0.2366 	1
0.2373 	1
0.238 	1
0.2387 	1
0.2394 	1
0.2401 	1
0.2408 	1
0.2415 	1
0.2422 	1
0.2429 	0.999999
0.2436 	0.999999
0.2443 	0.999999
0.245 	0.999998
0.2457 	0.999998
0.2464 	0.999997
0.2471 	0.999994
0.2478 	0.999991
0.2485 	0.999988
0.2492 	0.999983
0.2499 	0.999978
0.2506 	0.999972
0.2513 	0.999963
0.252 	0.999901
0.2527 	0.999821
0.2534 	0.999731
0.2541 	0.999613
0.2548 	0.999468
0.2555 	0.999337
0.2562 	0.999213
0.2569 	0.997078
0.2576 	0.994106
0.2583 	0.99055
0.259 	0.98622
0.2597 	0.9805
0.2604 	0.975067
0.2611 	0.969849
0.2618 	0.94689
0.2625 	0.916916
0.2632 	0.883609
0.2639 	0.845465
0.2646 	0.789584
0.2653 	0.734176
0.266 	0.679397
0.2667 	0.619884
0.2674 	0.557598
0.2681 	0.494888
0.2688 	0.431653
0.2695 	0.361579
0.2702 	0.291542
0.2709 	0.221594
0.2716 	0.165655
0.2723 	0.124302
0.273 	0.0878357
0.2737 	0.0513695
0.2744 	0.0409136
0.2751 	0.0323831
0.2758 	0.0234005
0.2765 	0.0156401
0.2772 	0.0100793
0.2779 	0.00627916
0.2786 	0.00255021
0.2793 	0.00150806
0.28 	0.00119866
0.2807 	0.000858746
0.2814 	0.000547229
0.2821 	0.000339827
0.2828 	0.000192257
0.2835 	5.81342e-05
0.2842 	9.09433e-06
0.2849 	7.32184e-06
0.2856 	5.32835e-06
0.2863 	3.35319e-06
0.287 	2.09518e-06
0.2877 	1.16399e-06
0.2884 	3.92439e-07
0.2891 	6.11266e-09
0.2898 	5.00785e-09
0.2905 	3.72406e-09
0.2912 	2.36868e-09
0.2919 	1.46758e-09
0.2926 	8.01107e-10
0.2933 	3.13735e-10
0.294 	4.01984e-13
0.2947 	3.34747e-13
0.2954 	2.55229e-13
0.2961 	1.66501e-13
0.2968 	1.01605e-13
0.2975 	5.3988e-14
0.2982 	2.37709e-14
0.2989 	2.80465e-17
0.2996 	2.32614e-17
0.3003 	1.79911e-17
0.301 	1.20739e-17
0.3017 	7.54602e-18
0.3024 	4.16935e-18
0.3031 	2.00854e-18
0.3038 	2.05556e-21
0.3045 	1.708e-21
0.3052 	1.33975e-21
0.3059 	9.19767e-22
0.3066 	5.77365e-22
0.3073 	3.22706e-22
0.308 	1.66981e-22
0.3087 	1.12551e-23
0.3094 	1.11925e-25
0.3101 	8.91861e-26
0.3108 	6.24329e-26
0.3115 	3.91644e-26
0.3122 	2.21684e-26
0.3129 	1.19585e-26
0.3136 	2.117e-27
0.3143 	7.07354e-30
0.315 	5.72235e-30
0.3157 	4.07678e-30
0.3164 	2.55788e-30
0.3171 	1.50346e-30
0.3178 	8.14479e-31
0.3185 	2.14687e-31
0.3192 	4.27415e-34
0.3199 	3.48322e-34
0.3206 	2.53986e-34
0.3213 	1.59559e-34
0.322 	9.69792e-35
0.3227 	5.25629e-35
0.3234 	1.75388e-35
0.3241 	2.46226e-38
0.3248 	2.01955e-38
0.3255 	1.5046e-38
0.3262 	9.60757e-39
0.3269 	5.93132e-39
0.3276 	3.20803e-39
0.3283 	1.25619e-39
0.329 	1.3492e-42
0.3297 	1.11338e-42
0.3304 	8.46235e-43
0.3311 	5.55592e-43
0.3318 	3.4357e-43
0.3325 	1.85139e-43
0.3332 	8.15017e-44
0.3339 	7.0288e-47
0.3346 	5.83334e-47
0.3353 	4.5169e-47
0.336 	3.03916e-47
0.3367 	1.88425e-47
0.3374 	1.0104e-47
0.3381 	4.86673e-48
0.3388 	3.49017e-51
0.3395 	2.91156e-51
0.3402 	2.29358e-51
0.3409 	1.57721e-51
0.3416 	9.80941e-52
0.3423 	5.2278e-52
0.343 	2.70482e-52
0.3437 	1.81837e-53
0.3444 	1.38511e-55
0.3451 	1.10911e-55
0.3458 	7.77628e-56
0.3465 	4.8529e-56
0.3472 	2.6342e-56
0.3479 	1.40752e-56
0.3486 	2.48976e-57
0.3493 	6.28483e-60
0.35 	5.11241e-60
0.3507 	3.64734e-60
0.3514 	2.28455e-60
0.3521 	1.29681e-60
0.3528 	6.89004e-61
0.3535 	1.81539e-61
0.3542 	2.72179e-64
0.3549 	2.23026e-64
0.3556 	1.62949e-64
0.3563 	1.0247e-64
0.357 	6.04218e-65
0.3577 	3.18386e-65
0.3584 	1.0621e-65
0.3591 	1.12625e-68
0.3598 	9.29461e-69
0.3605 	6.94482e-69
0.3612 	4.44225e-69
0.3619 	2.67252e-69
0.3626 	1.39341e-69
0.3633 	5.45532e-70
0.364 	4.46078e-73
0.3647 	3.70691e-73
0.3654 	2.82955e-73
0.3661 	1.85957e-73
0.3668 	1.12582e-73
0.3675 	5.79619e-74
0.3682 	2.5513e-74
0.3689 	1.69521e-77
0.3696 	1.41816e-77
0.3703 	1.10502e-77
0.371 	7.43765e-78
0.3717 	4.53234e-78
0.3724 	2.30031e-78
0.3731 	1.10788e-78
0.3738 	6.19729e-82
0.3745 	5.21394e-82
0.3752 	4.14231e-82
0.3759 	2.84998e-82
0.3766 	1.74964e-82
0.3773 	8.74245e-83
0.378 	4.52299e-83
0.3787 	3.03536e-84
0.3794 	-1.42733e-85
0.3801 	-2.70272e-85
0.3808 	-1.01114e-85
0.3815 	6.49653e-87
0.3822 	3.32538e-87
0.3829 	1.751e-87
0.3836 	3.09581e-88
0.3843 	-1.63997e-85
0.385 	-3.72721e-85
0.3857 	-1.63997e-85
0.3864 	2.22581e-91
0.3871 	1.18224e-91
0.3878 	5.80208e-92
0.3885 	1.03788e-92
0.3892 	-4.47255e-86
0.3899 	-1.14298e-85
0.3906 	-6.46031e-86
0.3913 	-6.74423e-93
0.392 	-4.92202e-93
0.3927 	-4.25604e-93
0.3934 	-4.25785e-93
0.3941 	-8.17145e-87
0.3948 	-2.45142e-86
0.3955 	-1.75101e-86
0.3962 	-1.16731e-87
0.3969 	-2.07672e-93
0.3976 	-9.88807e-94
0.3983 	-9.69047e-94
0.399 	-1.11606e-87
0.3997 	-4.241e-87
0.4004 	-3.79457e-87
0.4011 	-6.69625e-88
0.4018 	-4.99082e-94
0.4025 	-1.6414e-94
0.4032 	-1.59376e-94
0.4039 	-1.09487e-88
0.4046 	-6.20418e-88
0.4053 	-6.93407e-88
0.406 	-1.82475e-88
0.4067 	-9.10944e-95
0.4074 	-2.24836e-95
0.4081 	-2.17169e-95
0.4088 	-5.29108e-90
0.4095 	-7.93625e-89
0.4102 	-1.11107e-88
0.4109 	-3.70356e-89
0.4116 	-1.38367e-95
0.4123 	-2.71228e-96
0.413 	-2.61106e-96
0.4137 	-2.50983e-96
0.4144 	-9.07506e-90
0.4151 	-1.60559e-89
0.4158 	-6.28271e-90
0.4165 	-1.84674e-96
0.4172 	-4.1584e-97
0.4179 	-2.78169e-97
0.4186 	-2.66897e-97
0.4193 	-9.19455e-91
0.42 	-2.08967e-90
0.4207 	-9.19452e-91
0.4214 	-2.17372e-97
0.4221 	-6.31902e-98
0.4228 	-2.63446e-98
0.4235 	-2.52606e-98
0.4242 	-8.16869e-92
0.4249 	-2.08755e-91
0.4256 	-1.17992e-91
0.4263 	-2.26127e-98
0.427 	-7.88216e-99
0.4277 	-2.25473e-99
0.4284 	-2.16227e-99
0.4291 	-6.32483e-93
0.4298 	-1.89744e-92
0.4305 	-1.35531e-92
0.4312 	-9.03517e-94
0.4319 	-8.43831e-100
0.4326 	-1.77345e-100
0.4333 	-1.7018e-100
0.434 	-4.16424e-94
0.4347 	-1.5824e-93
0.4354 	-1.41583e-93
0.4361 	-2.4985e-94
0.4368 	-8.01076e-101
0.4375 	-1.31061e-101
0.4382 	-1.25921e-101
0.4389 	-2.16058e-95
0.4396 	-1.22431e-94
0.4403 	-1.36835e-94
0.441 	-3.60091e-95
0.4417 	-6.95128e-102
0.4424 	-9.31214e-103
0.4431 	-8.95301e-103
0.4438 	-5.90258e-97
0.4445 	-8.85351e-96
0.4452 	-1.23949e-95
0.4459 	-4.13162e-96
0.4466 	-5.67142e-103
0.4473 	-6.28686e-104
0.448 	-6.05162e-104
0.4487 	-5.81638e-104
0.4494 	-5.89444e-97
0.4501 	-1.04286e-96
0.4508 	-4.08075e-97
0.4515 	-4.33171e-104
0.4522 	-7.62712e-105
0.4529 	-3.90651e-105
0.4536 	-3.76083e-105
0.4543 	-3.58054e-98
0.455 	-8.13758e-98
0.4557 	-3.58053e-98
0.4564 	-3.12031e-105
0.4571 	-8.15899e-106
0.4578 	-2.44691e-106
0.4585 	-2.35979e-106
0.4592 	-1.97045e-99
0.4599 	-5.03558e-99
0.4606 	-2.8462e-99
0.4613 	-2.15705e-106
0.462 	-7.16063e-107
0.4627 	-1.51703e-107
0.4634 	-1.46514e-107
0.4641 	-9.70264e-101
0.4648 	-2.91078e-100
0.4655 	-2.07913e-100
0.4662 	-1.38605e-101
0.4669 	-5.71349e-108
0.4676 	-9.47918e-109
0.4683 	-9.16522e-109
0.469 	-4.16464e-102
0.4697 	-1.58255e-101
0.4704 	-1.41597e-101
0.4711 	-2.49875e-102
0.4718 	-4.35788e-109
0.4725 	-5.98232e-110
0.4732 	-5.78755e-110
0.4739 	-1.4333e-103
0.4746 	-8.12195e-103
0.4753 	-9.07747e-103
0.476 	-2.3888e-103
0.4767 	-3.23854e-110
0.4774 	-3.74564e-111
0.4781 	-3.62521e-111
0.4788 	-2.61645e-105
0.4795 	-3.92453e-104
0.4802 	-5.49434e-104
0.4809 	-1.83144e-104
0.4816 	-2.33055e-111
0.4823 	-2.27039e-112
0.483 	-2.19868e-112
0.4837 	-2.12698e-112
0.4844 	-1.77443e-105
0.4851 	-3.13937e-105
0.4858 	-1.22845e-105
0.4865 	-1.59694e-112
0.4872 	-2.7715e-113
0.4879 	-1.26644e-113
0.4886 	-1.22625e-113
0.4893 	-7.4408e-107
0.49 	-1.69109e-106
0.4907 	-7.44078e-107
0.4914 	-1.02638e-113
0.4921 	-2.64705e-114
0.4928 	-6.84167e-115
0.4935 	-6.63178e-115
0.4942 	-2.8599e-108
0.4949 	-7.30861e-108
0.4956 	-4.13095e-108
0.4963 	-6.12605e-115
0.497 	-2.00085e-115
0.4977 	-3.44833e-116
0.4984 	-3.34658e-116
0.4991 	-9.90334e-110
0.4998 	-2.97099e-109
0.5005 	-2.12213e-109
0.5012 	-1.41472e-110
0.5019 	-1.29868e-116
0.5026 	-1.62161e-117
0.5033 	-1.57565e-117
0.504 	-2.98861e-111
0.5047 	-1.13566e-110
0.5054 	-1.01612e-110
0.5061 	-1.79314e-111
0.5068 	-7.48259e-118
0.5075 	-7.14112e-119
0.5082 	-6.94585e-119
0.5089 	-7.20544e-113
0.5096 	-4.08304e-112
0.5103 	-4.56339e-112
0.511 	-1.20089e-112
0.5117 	-3.90327e-119
0.5124 	-2.96044e-120
0.5131 	-2.88157e-120
0.5138 	-9.20241e-115
0.5145 	-1.38031e-113
0.5152 	-1.93244e-113
0.5159 	-6.44144e-114
0.5166 	-1.86999e-120
0.5173 	-1.16308e-121
0.518 	-1.13253e-121
0.5187 	-1.10197e-121
0.5194 	-4.38598e-115
0.5201 	-7.7598e-115
0.5208 	-3.03644e-115
0.5215 	-8.32975e-122
0.5222 	-1.28727e-122
0.5229 	-4.2368e-123
0.5236 	-4.12245e-123
0.5243 	-1.30193e-116
0.525 	-2.95893e-116
0.5257 	-1.30193e-116
0.5264 	-3.47922e-123
0.5271 	-8.52024e-124
0.5278 	-1.51735e-124
0.5285 	-1.47567e-124
0.5292 	-3.57905e-118
0.5299 	-9.14644e-118
0.5306 	-5.16973e-118
0.5313 	-1.37394e-124
0.532 	-4.37004e-125
0.5327 	-5.23956e-126
0.5334 	-5.09079e-126
0.5341 	-8.96895e-120
0.5348 	-2.69068e-119
0.5355 	-1.92191e-119
0.5362 	-1.28125e-120
0.5369 	-1.95935e-126
0.5376 	-1.75928e-127
0.5383 	-1.70696e-127
0.539 	-1.98313e-121
0.5397 	-7.53586e-121
0.5404 	-6.74261e-121
0.5411 	-1.18987e-121
0.5418 	-8.06589e-128
0.5425 	-5.79229e-129
0.5432 	-5.61062e-129
0.5439 	-3.54775e-123
0.5446 	-2.01037e-122
0.5453 	-2.24688e-122
0.546 	-5.91284e-123
0.5467 	-3.13502e-129
0.5474 	-1.88216e-130
0.5481 	-1.82006e-130
0.5488 	-3.40569e-125
0.5495 	-5.10836e-124
0.5502 	-7.1517e-124
0.5509 	-2.3839e-124
0.5516 	-1.17118e-130
0.5523 	-6.0646e-132
0.553 	-5.85644e-132
0.5537 	-5.64828e-132
0.5544 	-1.2366e-125
0.5551 	-2.18783e-125
0.5558 	-8.56107e-126
0.5565 	-4.25692e-132
0.5572 	-6.60565e-133
0.5579 	-1.8675e-133
0.5586 	-1.79938e-133
0.5593 	-2.83528e-127
0.56 	-6.44381e-127
0.5607 	-2.83528e-127
0.5614 	-1.51135e-133
0.5621 	-3.7263e-134
0.5628 	-5.88764e-135
0.5635 	-5.67033e-135
0.5642 	-6.10832e-129
0.5649 	-1.56101e-128
0.5656 	-8.82311e-129
0.5663 	-5.24659e-135
0.567 	-1.67875e-135
0.5677 	-1.82873e-136
0.5684 	-1.76138e-136
0.5691 	-1.21746e-130
0.5698 	-3.65238e-130
0.5705 	-2.60884e-130
0.5712 	-1.73922e-131
0.5719 	-6.76456e-137
0.5726 	-5.57596e-138
0.5733 	-5.37342e-138
0.574 	-2.17173e-132
0.5747 	-8.25253e-132
0.5754 	-7.38384e-132
0.5761 	-1.30303e-132
0.5768 	-2.53237e-138
0.5775 	-1.66395e-139
0.5782 	-1.60484e-139
0.5789 	-3.17554e-134
0.5796 	-1.79945e-133
0.5803 	-2.01115e-133
0.581 	-5.29251e-134
0.5817 	-8.954e-140
0.5824 	-4.84886e-141
0.5831 	-4.68137e-141
0.5838 	-2.52062e-136
0.5845 	-3.78079e-135
0.5852 	-5.2931e-135
0.5859 	-1.76437e-135
0.5866 	-3.01571e-141
0.5873 	-1.37838e-142
0.588 	-1.33228e-142
0.5887 	-1.28618e-142
0.5894 	-7.63951e-137
0.5901 	-1.3516e-136
0.5908 	-5.28889e-137
0.5915 	-9.72773e-143
0.5922 	-1.51351e-143
0.5929 	-3.69769e-144
0.5936 	-3.5743e-144
0.5943 	-1.47657e-138
0.595 	-3.35582e-138
0.5957 	-1.47656e-138
0.5964 	-3.01694e-144
0.5971 	-7.43114e-145
0.5978 	-9.99746e-146
0.5985 	-9.67575e-146
0.5992 	-2.70223e-140
0.5999 	-6.90568e-140
0.6006 	-3.90321e-140
0.6013 	-9.01159e-146
0.602 	-2.8788e-146
0.6027 	-2.63451e-147
0.6034 	-2.55255e-147
0.6041 	-4.60387e-142
0.6048 	-1.38115e-141
0.6055 	-9.86539e-142
0.6062 	-6.57712e-143
0.6069 	-9.86791e-148
0.6076 	-6.77344e-149
0.6083 	-6.56896e-149
0.609 	-7.05505e-144
0.6097 	-2.6809e-143
0.6104 	-2.3987e-143
0.6111 	-4.23304e-144
0.6118 	-3.12098e-149
0.6125 	-1.70144e-150
0.6132 	-1.65143e-150
0.6139 	-8.8964e-146
0.6146 	-5.0412e-145
0.6153 	-5.63428e-145
0.616 	-1.48272e-145
0.6167 	-9.29896e-151
0.6174 	-4.18207e-152
0.6181 	-4.06199e-152
0.6188 	-6.10801e-148
0.6195 	-9.16134e-147
0.6202 	-1.28259e-146
0.6209 	-4.27531e-147
0.6216 	-2.64234e-152
0.6223 	-1.02911e-153
0.623 	-9.78994e-154
0.6237 	-9.5066e-154
0.6244 	-1.60335e-148
0.6251 	-2.83669e-148
0.6258 	-1.11001e-148
0.6265 	-7.21869e-154
0.6272 	-1.11904e-154
0.6279 	-2.31506e-155
0.6286 	-2.24931e-155
0.6293 	-2.68743e-150
0.63 	-6.10775e-150
0.6307 	-2.68742e-150
0.6314 	-1.9068e-155
0.6321 	-4.69255e-156
0.6328 	-5.37743e-157
0.6335 	-5.22736e-157
0.6342 	-4.27436e-152
0.6349 	-1.09233e-151
0.6356 	-6.17404e-152
0.6363 	-4.89026e-157
0.637 	-1.56224e-157
0.6377 	-1.22809e-158
0.6384 	-1.19438e-158
0.6391 	-6.3445e-154
0.6398 	-1.90332e-153
0.6405 	-1.35952e-153
0.6412 	-9.06456e-155
0.6419 	-4.63949e-159
0.6426 	-2.75969e-160
0.6433 	-2.68519e-160
0.644 	-8.49342e-156
0.6447 	-3.22742e-155
0.6454 	-2.8877e-155
0.6461 	-5.09615e-156
0.6468 	-1.28194e-160
0.6475 	-6.10791e-162
0.6482 	-5.94587e-162
0.6489 	-9.38962e-158
0.6496 	-5.3205e-157
0.6503 	-5.94643e-157
0.651 	-1.56489e-157
0.6517 	-3.36462e-162
0.6524 	-1.34224e-163
0.6531 	-1.30756e-163
0.6538 	-5.6701e-160
0.6545 	-8.50332e-159
0.6552 	-1.19046e-158
0.6559 	-3.96828e-159
0.6566 	-8.55318e-164
0.6573 	-3.51325e-165
0.658 	-2.9265e-165
0.6587 	-2.85348e-165
0.6594 	-1.31246e-160
0.6601 	-2.32202e-160
0.6608 	-9.08634e-161
0.6615 	-2.17319e-165
0.6622 	-3.40839e-166
0.6629 	-6.51462e-167
0.6636 	-6.36303e-167
0.6643 	-1.94562e-162
0.665 	-4.42179e-162
0.6657 	-1.94562e-162
0.6664 	-5.41469e-167
0.6671 	-1.33931e-167
0.6678 	-1.4222e-168
0.6685 	-1.39097e-168
0.6692 	-2.74507e-164
0.6699 	-7.01497e-164
0.6706 	-3.96504e-164
0.6713 	-1.30767e-168
0.672 	-4.18656e-169
0.6727 	-3.01652e-170
0.6734 	-2.95317e-170
0.6741 	-3.62603e-166
0.6748 	-1.08775e-165
0.6755 	-7.76972e-166
0.6762 	-5.18255e-167
0.6769 	-1.15516e-170
0.6776 	-6.22595e-172
0.6783 	-6.09958e-172
0.679 	-4.33466e-168
0.6797 	-1.647e-167
0.6804 	-1.47364e-167
0.6811 	-2.60104e-168
0.6818 	-2.93388e-172
0.6825 	-1.25295e-173
0.6832 	-1.22818e-173
0.6839 	-4.29183e-170
0.6846 	-2.43147e-169
0.6853 	-2.71751e-169
0.686 	-7.15224e-170
0.6867 	-7.00634e-174
0.6874 	-2.46017e-175
0.6881 	-2.41254e-175
0.6888 	-2.33005e-172
0.6895 	-3.49176e-171
0.6902 	-4.88838e-171
0.6909 	-1.62962e-171
0.6916 	-1.59114e-175
0.6923 	-6.15325e-177
0.693 	-4.60231e-177
0.6937 	-4.51254e-177
0.6944 	-4.8613e-173
0.6951 	-8.60041e-173
0.6958 	-3.36565e-173
0.6965 	-3.44551e-177
0.6972 	-5.40367e-178
0.6979 	-9.5671e-179
0.6986 	-9.4013e-179
0.6993 	-9.3496e-179
0.7 	-9.32903e-179
