0 	1
0.0007 	1
0.0014 	1
0.0021 	1
0.0028 	1
0.0035 	1
0.0042 	1
0.0049 	1
0.0056 	1
0.0063 	1
0.007 	1
0.0077 	1
0.0084 	1
0.0091 	1
0.0098 	1
0.0105 	1
0.0112 	1
0.0119 	1
0.0126 	1
0.0133 	1
0.014 	1
0.0147 	1
0.0154 	1
0.0161 	1
0.0168 	1
0.0175 	1
0.0182 	1
0.0189 	1
0.0196 	1
0.0203 	1
0.021 	1
0.0217 	1
0.0224 	1
0.0231 	1
0.0238 	1
0.0245 	1
0.0252 	1
0.0259 	1
0.0266 	1
0.0273 	1
0.028 	1
0.0287 	1
0.0294 	1
0.0301 	1
0.0308 	1
0.0315 	1
0.0322 	1
0.0329 	1
0.0336 	1
0.0343 	1
0.035 	1
0.0357 	1
0.0364 	1
0.0371 	1
0.0378 	1
0.0385 	1
0.0392 	1
0.0399 	1
0.0406 	1
0.0413 	1
0.042 	1
0.0427 	1
0.0434 	1
0.0441 	1
0.0448 	1
0.0455 	1
0.0462 	1
0.0469 	1
0.0476 	1
0.0483 	1
0.049 	1
0.0497 	1
0.0504 	1
0.0511 	1
0.0518 	1
0.0525 	1
0.0532 	1
0.0539 	1
0.0546 	1
0.0553 	1
0.056 	1
0.0567 	1
0.0574 	1
0.0581 	1
0.0588 	1
0.0595 	1
0.0602 	1
0.0609 	1
0.0616 	1
0.0623 	1
0.063 	1
0.0637 	1
0.0644 	1
0.0651 	1
0.0658 	1
0.0665 	1
0.0672 	1
0.0679 	1
0.0686 	1
0.0693 	1
0.07 	1
0.0707 	1
0.0714 	1
0.0721 	1
0.0728 	1
0.0735 	1
0.0742 	1
0.0749 	1
0.0756 	1
0.0763 	1
0.077 	1
0.0777 	1
0.0784 	1
0.0791 	1
0.0798 	1
0.0805 	1
0.0812 	1
0.0819 	1
0.0826 	1
0.0833 	1
0.084 	1
0.0847 	1
0.0854 	1
0.0861 	1
0.0868 	1
0.0875 	1
0.0882 	1
0.0889 	1
0.0896 	1
0.0903 	1
0.091 	1
0.0917 	1
0.0924 	1
0.0931 	1
0.0938 	1
0.0945 	1
0.0952 	1
0.0959 	1
0.0966 	1
0.0973 	1
0.098 	1
0.0987 	1
0.0994 	1
0.1001 	1
0.1008 	1
0.1015 	1
0.1022 	1
0.1029 	1
0.1036 	1
0.1043 	1
0.105 	1
0.1057 	1
0.1064 	1
0.1071 	1
0.1078 	1
0.1085 	1
0.1092 	1
0.1099 	1
0.1106 	1
0.1113 	1
0.112 	1
0.1127 	1
0.1134 	1
0.1141 	1
0.1148 	1
0.1155 	1
0.1162 	1
0.1169 	1
0.1176 	1
0.1183 	1
0.119 	1
0.1197 	1
0.1204 	1
0.1211 	1
0.1218 	1
0.1225 	1
0.1232 	1
0.1239 	1
0.1246 	1
0.1253 	1
0.126 	1
0.1267 	1
0.1274 	1
0.1281 	1
0.1288 	1
0.1295 	1
0.1302 	1
0.1309 	1
0.1316 	1
0.1323 	1
0.133 	1
0.1337 	1
0.1344 	1
0.1351 	1
0.1358 	1
0.1365 	1
0.1372 	1
0.1379 	1
0.1386 	1
0.1393 	1
0.14 	1
0.1407 	1
0.1414 	1
0.1421 	1
0.1428 	1
0.1435 	1
0.1442 	1
0.1449 	1
0.1456 	1
0.1463 	1
0.147 	1
0.1477 	1
0.1484 	1
0.1491 	1
0.1498 	1
0.1505 	1
0.1512 	1
0.1519 	1
0.1526 	1
0.1533 	1
0.154 	1
0.1547 	1
0.1554 	1
0.1561 	1
0.1568 	1
0.1575 	1
0.1582 	1
0.1589 	1
0.1596 	1
0.1603 	1
0.161 	1
0.1617 	1
0.1624 	1
0.1631 	1
0.1638 	1
0.1645 	1
0.1652 	1
0.1659 	1
0.1666 	1
0.1673 	1
0.168 	1
0.1687 	1
0.1694 	1
0.1701 	1
0.1708 	1
0.1715 	1
0.1722 	1
0.1729 	1
0.1736 	1
0.1743 	1
0.175 	1
0.1757 	1
0.1764 	1
0.1771 	1
0.1778 	1
0.1785 	1
0.1792 	1
0.1799 	1
0.1806 	1
0.1813 	1
0.182 	1
0.1827 	1
0.1834 	1
0.1841 	1
0.1848 	1
0.1855 	1
0.1862 	1
0.1869 	1
0.1876 	1
0.1883 	1
0.189 	1
0.1897 	1
0.1904 	1
0.1911 	1
0.1918 	1
0.1925 	1
0.1932 	1
0.1939 	1
0.1946 	1
0.1953 	1
0.196 	1
0.1967 	1
0.1974 	1
0.1981 	1
0.1988 	1
0.1995 	1
0.2002 	1
0.2009 	1
0.2016 	1
0.2023 	1
0.203 	1
0.2037 	1
0.2044 	1
0.2051 	1
0.2058 	1
0.2065 	1
0.2072 	1
0.2079 	1
0.2086 	1
0.2093 	1
0.21 	1
0.2107 	1
0.2114 	1
0.2121 	1
0.2128 	1
0.2135 	1
0.2142 	1
0.2149 	1
0.2156 	1
0.2163 	1
0.217 	0.999998
0.2177 	0.999997
0.2184 	0.999995
0.2191 	0.999993
0.2198 	0.999991
0.2205 	0.999988
0.2212 	0.999985
0.2219 	0.999952
0.2226 	0.99993
0.2233 	0.999909
0.224 	0.999876
0.2247 	0.999821
0.2254 	0.99977
0.2261 	0.99972
0.2268 	0.999363
0.2275 	0.999112
0.2282 	0.998875
0.2289 	0.998554
0.2296 	0.997924
0.2303 	0.997354
0.231 	0.996861
0.2317 	0.990504
0.2324 	0.984194
0.2331 	0.97875
0.2338 	0.972655
0.2345 	0.958092
0.2352 	0.944035
0.2359 	0.931244
0.2366 	0.899451
0.2373 	0.853708
0.238 	0.810693
0.2387 	0.767678
0.2394 	0.689376
0.2401 	0.608308
0.2408 	0.526926
0.2415 	0.453527
0.2422 	0.393018
0.2429 	0.331064
0.2436 	0.269111
0.2443 	0.224719
0.245 	0.185118
0.2457 	0.142747
0.2464 	0.105439
0.2471 	0.0838046
0.2478 	0.0571077
0.2485 	0.0304108
0.2492 	0.0189001
0.2499 	0.0158261
0.2506 	0.0120743
0.2513 	0.00839123
0.252 	0.00679266
0.2527 	0.00421129
0.2534 	0.00162993
0.2541 	0.000320399
0.2548 	0.000282702
0.2555 	0.00022372
0.2562 	0.000156224
0.2569 	0.000132454
0.2576 	8.26554e-05
0.2583 	3.28566e-05
0.259 	8.28024e-07
0.2597 	7.85795e-07
0.2604 	6.61982e-07
0.2611 	4.76981e-07
0.2618 	4.09475e-07
0.2625 	2.67426e-07
0.2632 	1.17871e-07
0.2639 	3.62179e-10
0.2646 	3.57274e-10
0.2653 	3.21795e-10
0.266 	2.45548e-10
0.2667 	2.06441e-10
0.2674 	1.56318e-10
0.2681 	9.78431e-11
0.2688 	4.34949e-11
0.2695 	4.27983e-11
0.2702 	4.21166e-11
0.2709 	4.14724e-11
0.2716 	4.00443e-11
0.2723 	3.87626e-11
0.273 	3.79861e-11
0.2737 	3.72095e-11
0.2744 	3.49763e-11
0.2751 	3.26606e-11
0.2758 	3.05228e-11
0.2765 	2.83537e-11
0.2772 	2.62414e-11
0.2779 	2.42401e-11
0.2786 	2.22387e-11
0.2793 	2.01673e-11
0.28 	1.80769e-11
0.2807 	1.58107e-11
0.2814 	1.37269e-11
0.2821 	1.21875e-11
0.2828 	1.04282e-11
0.2835 	8.66899e-12
0.2842 	7.45657e-12
0.2849 	6.54792e-12
0.2856 	5.49671e-12
0.2863 	4.45922e-12
0.287 	3.86147e-12
0.2877 	3.09444e-12
0.2884 	2.32741e-12
0.2891 	1.82257e-12
0.2898 	1.57991e-12
0.2905 	1.31186e-12
0.2912 	1.03366e-12
0.2919 	8.79124e-13
0.2926 	6.93245e-13
0.2933 	5.07366e-13
0.294 	3.7031e-13
0.2947 	3.21135e-13
0.2954 	2.69618e-13
0.2961 	2.16344e-13
0.2968 	1.82178e-13
0.2975 	1.48088e-13
0.2982 	1.1363e-13
0.2989 	8.43715e-14
0.2996 	7.41794e-14
0.3003 	6.3459e-14
0.301 	5.20343e-14
0.3017 	4.38944e-14
0.3024 	3.65463e-14
0.3031 	2.89236e-14
0.3038 	2.16644e-14
0.3045 	1.91316e-14
0.3052 	1.64537e-14
0.3059 	1.34131e-14
0.3066 	1.11032e-14
0.3073 	9.20436e-15
0.308 	7.13107e-15
0.3087 	5.05779e-15
0.3094 	4.33584e-15
0.3101 	3.69729e-15
0.3108 	2.93549e-15
0.3115 	2.31774e-15
0.3122 	1.88425e-15
0.3129 	1.37689e-15
0.3136 	8.69543e-16
0.3143 	6.78054e-16
0.315 	5.72709e-16
0.3157 	4.43945e-16
0.3164 	3.30729e-16
0.3171 	2.64957e-16
0.3178 	1.82251e-16
0.3185 	9.95453e-17
0.3192 	6.33767e-17
0.3199 	5.30618e-17
0.3206 	4.11802e-17
0.3213 	2.95255e-17
0.322 	2.37253e-17
0.3227 	1.6169e-17
0.3234 	8.6127e-18
0.3241 	4.46843e-18
0.3248 	3.7362e-18
0.3255 	2.9654e-18
0.3262 	2.17917e-18
0.3269 	1.75368e-18
0.3276 	1.28192e-18
0.3283 	8.10154e-19
0.329 	4.79516e-19
0.3297 	4.02906e-19
0.3304 	3.28196e-19
0.3311 	2.54911e-19
0.3318 	2.05439e-19
0.3325 	1.61743e-19
0.3332 	1.17995e-19
0.3339 	8.07614e-20
0.3346 	6.74133e-20
0.3353 	5.47393e-20
0.336 	4.29641e-20
0.3367 	3.41936e-20
0.3374 	2.71461e-20
0.3381 	2.01129e-20
0.3388 	1.34152e-20
0.3395 	1.10788e-20
0.3402 	8.82921e-21
0.3409 	6.79661e-21
0.3416 	5.20665e-21
0.3423 	4.0396e-21
0.343 	2.86173e-21
0.3437 	1.68386e-21
0.3444 	1.33177e-21
0.3451 	1.04771e-21
0.3458 	7.906e-22
0.3465 	5.77413e-22
0.3472 	4.37913e-22
0.3479 	2.93105e-22
0.3486 	1.48297e-22
0.3493 	1.00426e-22
0.35 	7.89929e-23
0.3507 	5.91381e-23
0.3514 	4.14492e-23
0.3521 	3.12281e-23
0.3528 	2.01635e-23
0.3535 	9.09883e-24
0.3542 	4.54433e-24
0.3549 	3.60658e-24
0.3556 	2.70178e-24
0.3563 	1.83642e-24
0.357 	1.39551e-24
0.3577 	8.94247e-25
0.3584 	3.92981e-25
0.3591 	1.29489e-25
0.3598 	1.0377e-25
0.3605 	7.83314e-26
0.3612 	5.30049e-26
0.3619 	4.01283e-26
0.3626 	2.60047e-26
0.3633 	1.18812e-26
0.364 	2.61955e-27
0.3647 	2.10933e-27
0.3654 	1.60387e-27
0.3661 	1.10197e-27
0.3668 	8.11467e-28
0.3675 	5.36992e-28
0.3682 	2.59417e-28
0.3689 	3.96665e-29
0.3696 	3.1939e-29
0.3703 	2.43564e-29
0.371 	1.69673e-29
0.3717 	1.21194e-29
0.3724 	8.20077e-30
0.3731 	4.15213e-30
0.3738 	3.87352e-31
0.3745 	3.12784e-31
0.3752 	2.39536e-31
0.3759 	1.69589e-31
0.3766 	1.1881e-31
0.3773 	8.24723e-32
0.378 	4.35293e-32
0.3787 	4.58622e-33
0.3794 	1.49414e-33
0.3801 	1.16156e-33
0.3808 	8.39818e-34
0.3815 	5.85118e-34
0.3822 	4.23183e-34
0.3829 	2.33512e-34
0.3836 	4.3842e-35
0.3843 	2.80446e-36
0.385 	2.30279e-36
0.3857 	1.71681e-36
0.3864 	1.21346e-36
0.3871 	9.45453e-37
0.3878 	5.56397e-37
0.3885 	1.67341e-37
0.3892 	2.79801e-38
0.3899 	2.73386e-38
0.3906 	2.2395e-38
0.3913 	1.70621e-38
0.392 	1.52593e-38
0.3927 	1.08022e-38
0.3934 	6.34508e-39
0.3941 	4.19392e-39
0.3948 	4.3487e-39
0.3955 	3.75796e-39
0.3962 	2.86903e-39
0.3969 	2.64418e-39
0.3976 	1.92875e-39
0.3983 	1.21333e-39
0.399 	7.70883e-40
0.3997 	8.198e-40
0.4004 	7.36693e-40
0.4011 	5.54568e-40
0.4018 	4.99022e-40
0.4025 	3.54884e-40
0.4032 	2.01409e-40
0.4039 	8.25764e-41
0.4046 	9.07633e-41
0.4053 	8.61929e-41
0.406 	6.46127e-41
0.4067 	5.56712e-41
0.4074 	4.01382e-41
0.4081 	2.09096e-41
0.4088 	3.08895e-42
0.4095 	3.5725e-42
0.4102 	3.66358e-42
0.4109 	2.77349e-42
0.4116 	2.30089e-42
0.4123 	1.74677e-42
0.413 	9.16147e-43
0.4137 	8.55253e-44
0.4144 	3.16302e-44
0.4151 	3.54649e-44
0.4158 	2.71986e-44
0.4165 	2.17715e-44
0.4172 	1.76358e-44
0.4179 	9.68768e-45
0.4186 	1.73959e-45
0.4193 	4.44762e-47
0.42 	5.47071e-47
0.4207 	4.24479e-47
0.4214 	3.27599e-47
0.4221 	2.83023e-47
0.4228 	1.62985e-47
0.4235 	4.29462e-48
0.4242 	9.13202e-51
0.4249 	1.15834e-50
0.4256 	9.65158e-51
0.4263 	7.17742e-51
0.427 	6.59123e-51
0.4277 	3.95523e-51
0.4284 	1.31924e-51
0.4291 	1.46257e-54
0.4298 	1.89461e-54
0.4305 	1.69711e-54
0.4312 	1.24779e-54
0.4319 	1.18191e-54
0.4326 	7.34841e-55
0.4333 	2.87768e-55
0.434 	4.12028e-58
0.4347 	5.43649e-58
0.4354 	5.23806e-58
0.4361 	3.90363e-58
0.4368 	3.61586e-58
0.4375 	2.37917e-58
0.4382 	1.04721e-58
0.4389 	7.25873e-62
0.4396 	9.70854e-62
0.4403 	1.005e-61
0.441 	7.58024e-62
0.4417 	6.69655e-62
0.4424 	4.75863e-62
0.4431 	2.2917e-62
0.4438 	9.96709e-66
0.4445 	1.35102e-65
0.4452 	1.50221e-65
0.4459 	1.14559e-65
0.4466 	9.67125e-66
0.4473 	7.38161e-66
0.448 	3.8186e-66
0.4487 	2.55595e-67
0.4494 	1.47308e-69
0.4501 	1.75953e-69
0.4508 	1.35551e-69
0.4515 	1.09567e-69
0.4522 	8.9395e-70
0.4529 	4.90265e-70
0.4536 	8.65797e-71
0.4543 	9.82604e-74
0.455 	1.26043e-73
0.4557 	9.80628e-74
0.4564 	7.60728e-74
0.4571 	6.6073e-74
0.4578 	3.80524e-74
0.4585 	1.00317e-74
0.4592 	-1.41191e-76
0.4599 	-3.98725e-76
0.4606 	-2.16419e-76
0.4613 	2.08499e-77
0.462 	1.77699e-77
0.4627 	7.84077e-78
0.4634 	-2.08834e-78
0.4641 	-2.68241e-76
0.4648 	-7.90616e-76
0.4655 	-5.6878e-76
0.4662 	-4.92598e-77
0.4669 	-1.35747e-77
0.4676 	-1.45223e-77
0.4683 	-1.547e-77
0.469 	-3.00374e-76
0.4697 	-1.0964e-75
0.4704 	-9.84977e-76
0.4711 	-1.92979e-76
0.4718 	-2.48608e-77
0.4725 	-2.70372e-77
0.4732 	-2.9225e-77
0.4739 	-2.65005e-76
0.4746 	-1.35728e-75
0.4753 	-1.51589e-75
0.476 	-4.29615e-76
0.4767 	-4.31295e-77
0.4774 	-4.67304e-77
0.4781 	-5.06922e-77
0.4788 	-1.53802e-76
0.4795 	-1.54581e-75
0.4802 	-2.14422e-75
0.4809 	-7.58662e-76
0.4816 	-6.68376e-77
0.4823 	-7.04521e-77
0.483 	-7.50157e-77
0.4837 	-7.95794e-77
0.4844 	-1.58083e-75
0.4851 	-2.7361e-75
0.4858 	-1.12478e-75
0.4865 	-8.92861e-77
0.4872 	-9.16521e-77
0.4879 	-9.53856e-77
0.4886 	-9.91191e-77
0.4893 	-1.4408e-75
0.49 	-3.14736e-75
0.4907 	-1.44289e-75
0.4914 	-1.03753e-76
0.4921 	-1.04974e-76
0.4928 	-1.07576e-76
0.4935 	-1.10177e-76
0.4942 	-1.21906e-75
0.4949 	-2.94254e-75
0.4956 	-1.71303e-75
0.4963 	-1.14521e-76
0.497 	-1.17742e-76
0.4977 	-1.23674e-76
0.4984 	-1.29607e-76
0.4991 	-1.087e-75
0.4998 	-2.99583e-75
0.5005 	-2.18677e-75
0.5012 	-2.90537e-76
0.5019 	-1.68001e-76
0.5026 	-1.95492e-76
0.5033 	-2.22984e-76
0.504 	-1.27223e-75
0.5047 	-4.16063e-75
0.5054 	-3.78183e-75
0.5061 	-9.52648e-76
0.5068 	-3.85869e-76
0.5075 	-5.00532e-76
0.5082 	-6.20335e-76
0.5089 	-1.99153e-75
0.5096 	-7.95112e-75
0.5103 	-8.901e-75
0.511 	-3.17124e-75
0.5117 	-1.21943e-75
0.5124 	-1.55545e-75
0.5131 	-1.94381e-75
0.5138 	-3.23233e-75
0.5145 	-1.62226e-74
0.5152 	-2.19717e-74
0.5159 	-9.61794e-75
0.5166 	-3.60378e-75
0.5173 	-4.30861e-75
0.518 	-5.22673e-75
0.5187 	-6.14486e-75
0.5194 	-3.06375e-74
0.5201 	-4.96147e-74
0.5208 	-2.4619e-74
0.5215 	-8.76214e-75
0.5222 	-9.92654e-75
0.5229 	-1.16689e-74
0.5236 	-1.34113e-74
0.5243 	-5.24121e-74
0.525 	-1.01574e-73
0.5257 	-5.46836e-74
0.5264 	-1.80475e-74
0.5271 	-1.97043e-74
0.5278 	-2.26242e-74
0.5285 	-2.55441e-74
0.5292 	-8.18923e-74
0.5299 	-1.67923e-73
0.5306 	-1.09554e-73
0.5313 	-3.31108e-74
0.532 	-3.52133e-74
0.5327 	-3.97494e-74
0.5334 	-4.42855e-74
0.5341 	-1.1733e-73
0.5348 	-2.58881e-73
0.5355 	-2.02004e-73
0.5362 	-6.57568e-74
0.5369 	-5.81953e-74
0.5376 	-6.47221e-74
0.5383 	-7.12489e-74
0.539 	-1.53074e-73
0.5397 	-3.70434e-73
0.5404 	-3.43449e-73
0.5411 	-1.33205e-73
0.5418 	-9.00727e-74
0.5425 	-9.80136e-74
0.5432 	-1.064e-73
0.5439 	-1.78732e-73
0.5446 	-4.85529e-73
0.5453 	-5.32871e-73
0.546 	-2.34274e-73
0.5467 	-1.29191e-73
0.5474 	-1.36749e-73
0.5481 	-1.45738e-73
0.5488 	-1.81945e-73
0.5495 	-5.71975e-73
0.5502 	-7.41209e-73
0.5509 	-3.58451e-73
0.5516 	-1.67889e-73
0.5523 	-1.72922e-73
0.553 	-1.79878e-73
0.5537 	-1.86833e-73
0.5544 	-5.939e-73
0.5551 	-9.07146e-73
0.5558 	-4.72799e-73
0.5565 	-1.9363e-73
0.5572 	-1.94745e-73
0.5579 	-1.96836e-73
0.5586 	-1.98928e-73
0.5593 	-5.37466e-73
0.56 	-9.67761e-73
0.5607 	-5.3554e-73
0.5614 	-1.95641e-73
0.5621 	-1.93461e-73
0.5628 	-1.89818e-73
0.5635 	-1.86175e-73
0.5642 	-4.24544e-73
0.5649 	-7.97361e-73
0.5656 	-5.25646e-73
0.5663 	-1.73424e-73
0.567 	-1.69993e-73
0.5677 	-1.62355e-73
0.5684 	-1.54717e-73
0.5691 	-2.95815e-73
0.5698 	-5.85647e-73
0.5705 	-4.55675e-73
0.5712 	-1.5778e-73
0.5719 	-1.33791e-73
0.5726 	-1.24983e-73
0.5733 	-1.16175e-73
0.574 	-1.84205e-73
0.5747 	-3.90539e-73
0.5754 	-3.56782e-73
0.5761 	-1.42955e-73
0.5768 	-9.5494e-74
0.5775 	-8.81086e-74
0.5782 	-8.02866e-74
0.5789 	-1.03476e-73
0.5796 	-2.40374e-73
0.5803 	-2.57436e-73
0.581 	-1.14716e-73
0.5817 	-6.27572e-74
0.5824 	-5.7792e-74
0.5831 	-5.18641e-74
0.5838 	-5.24804e-74
0.5845 	-1.38169e-73
0.5852 	-1.73741e-73
0.5859 	-8.40219e-74
0.5866 	-3.86498e-74
0.5873 	-3.57039e-74
0.588 	-3.16674e-74
0.5887 	-2.76308e-74
0.5894 	-7.46554e-74
0.5901 	-1.10682e-73
0.5908 	-5.71584e-74
0.5915 	-2.25228e-74
0.5922 	-2.09434e-74
0.5929 	-1.84012e-74
0.5936 	-1.58589e-74
0.5943 	-3.79984e-74
0.595 	-6.6869e-74
0.5957 	-3.64592e-74
0.5964 	-1.24859e-74
0.5971 	-1.17156e-74
0.5978 	-1.02115e-74
0.5985 	-8.70746e-75
0.5992 	-1.81997e-74
0.5999 	-3.3801e-74
0.6006 	-2.19107e-74
0.6013 	-6.60026e-75
0.602 	-6.2613e-75
0.6027 	-5.41913e-75
0.6034 	-4.57696e-75
0.6041 	-8.17513e-75
0.6048 	-1.62136e-74
0.6055 	-1.24347e-74
0.6062 	-3.92885e-75
0.6069 	-3.1983e-75
0.6076 	-2.75065e-75
0.6083 	-2.303e-75
0.609 	-3.42483e-75
0.6097 	-7.37173e-75
0.6104 	-6.67189e-75
0.6111 	-2.48699e-75
0.6118 	-1.5477e-75
0.6125 	-1.33491e-75
0.6132 	-1.10882e-75
0.6139 	-1.32671e-75
0.6146 	-3.1725e-75
0.6153 	-3.3869e-75
0.616 	-1.42612e-75
0.6167 	-7.09353e-76
0.6174 	-6.19104e-76
0.6181 	-5.10602e-76
0.6188 	-4.68559e-76
0.6195 	-1.29047e-75
0.6202 	-1.62765e-75
0.6209 	-7.53038e-76
0.6216 	-3.09968e-76
0.6223 	-2.74279e-76
0.623 	-2.24802e-76
0.6237 	-1.75326e-76
0.6244 	-4.95383e-76
0.6251 	-7.41025e-76
0.6258 	-3.6963e-76
0.6265 	-1.29118e-76
0.6272 	-1.16046e-76
0.6279 	-9.46091e-77
0.6286 	-7.31722e-77
0.6293 	-1.79159e-76
0.63 	-3.19898e-76
0.6307 	-1.69709e-76
0.6314 	-5.12766e-77
0.6321 	-4.68883e-77
0.6328 	-3.80608e-77
0.6335 	-2.92333e-77
0.6342 	-6.09116e-77
0.6349 	-1.15093e-76
0.6356 	-7.32213e-77
0.6363 	-1.94203e-77
0.637 	-1.80959e-77
0.6377 	-1.46393e-77
0.6384 	-1.11826e-77
0.6391 	-1.94079e-77
0.6398 	-3.9315e-77
0.6405 	-2.9801e-77
0.6412 	-8.51868e-78
0.6419 	-6.67356e-78
0.6426 	-5.3855e-78
0.6433 	-4.09745e-78
0.644 	-5.76645e-78
0.6447 	-1.27581e-77
0.6454 	-1.14815e-77
0.6461 	-4.00377e-78
0.6468 	-2.32498e-78
0.6475 	-1.896e-78
0.6482 	-1.43882e-78
0.6489 	-1.58356e-78
0.6496 	-3.93527e-78
0.6503 	-4.20113e-78
0.651 	-1.68585e-78
0.6517 	-7.6683e-79
0.6524 	-6.39208e-79
0.6531 	-4.84463e-79
0.6538 	-3.94987e-79
0.6545 	-1.154e-78
0.6552 	-1.4643e-78
0.6559 	-6.52816e-79
0.6566 	-2.41987e-79
0.6573 	-2.0649e-79
0.658 	-1.5648e-79
0.6587 	-1.06469e-79
0.6594 	-3.21491e-79
0.6601 	-4.87345e-79
0.6608 	-2.35868e-79
0.6615 	-7.31067e-80
0.6622 	-6.39378e-80
0.6629 	-4.84895e-80
0.6636 	-3.30412e-80
0.6643 	-8.48894e-80
0.665 	-1.55091e-79
0.6657 	-8.01876e-80
0.6664 	-2.11449e-80
0.6671 	-1.89729e-80
0.6678 	-1.4409e-80
0.6685 	-9.84517e-81
0.6692 	-2.11433e-80
0.6699 	-4.12535e-80
0.6706 	-2.57623e-80
0.6713 	-5.85028e-81
0.672 	-5.39007e-81
0.6727 	-4.1009e-81
0.6734 	-2.81174e-81
0.6741 	-4.92662e-81
0.6748 	-1.04455e-80
0.6755 	-7.82977e-81
0.6762 	-1.96013e-81
0.6769 	-1.46316e-81
0.6776 	-1.11545e-81
0.6783 	-7.67735e-82
0.679 	-1.06012e-81
0.6797 	-2.50469e-81
0.6804 	-2.24744e-81
0.6811 	-7.13848e-82
0.6818 	-3.72602e-82
0.6825 	-2.89087e-82
0.6832 	-1.9977e-82
0.6839 	-2.06439e-82
0.6846 	-5.65057e-82
0.6853 	-6.07109e-82
0.686 	-2.27076e-82
0.6867 	-8.89049e-83
0.6874 	-7.11261e-83
0.6881 	-4.93555e-83
0.6888 	-3.51356e-83
0.6895 	-1.19072e-82
0.6902 	-1.53657e-82
0.6909 	-6.48629e-83
0.6916 	-2.00419e-83
0.6923 	-1.65487e-83
0.693 	-1.15346e-83
0.6937 	-6.52058e-84
0.6944 	-2.3269e-83
0.6951 	-3.62801e-83
0.6958 	-1.68239e-83
0.6965 	-4.26339e-84
0.6972 	-3.7446e-84
0.6979 	-2.84316e-84
0.6986 	-1.94172e-84
0.6993 	-6.85811e-84
0.7 	-1.33612e-83
