0 	1
0.0007 	1
0.0014 	1
0.0021 	1
0.0028 	1
0.0035 	1
0.0042 	1
0.0049 	1
0.0056 	1
0.0063 	1
0.007 	1
0.0077 	1
0.0084 	1
0.0091 	1
0.0098 	1
0.0105 	1
0.0112 	1
0.0119 	1
0.0126 	1
0.0133 	1
0.014 	1
0.0147 	1
0.0154 	1
0.0161 	1
0.0168 	1
0.0175 	1
0.0182 	1
0.0189 	1
0.0196 	1
0.0203 	1
0.021 	1
0.0217 	1
0.0224 	1
0.0231 	1
0.0238 	1
0.0245 	1
0.0252 	1
0.0259 	1
0.0266 	1
0.0273 	1
0.028 	1
0.0287 	1
0.0294 	1
0.0301 	1
0.0308 	1
0.0315 	1
0.0322 	1
0.0329 	1
0.0336 	1
0.0343 	1
0.035 	1
0.0357 	1
0.0364 	1
0.0371 	1
0.0378 	1
0.0385 	1
0.0392 	1
0.0399 	1
0.0406 	1
0.0413 	1
0.042 	1
0.0427 	1
0.0434 	1
0.0441 	1
0.0448 	1
0.0455 	1
0.0462 	1
0.0469 	1
0.0476 	1
0.0483 	1
0.049 	1
0.0497 	1
0.0504 	1
0.0511 	1
0.0518 	1
0.0525 	1
0.0532 	1
0.0539 	1
0.0546 	1
0.0553 	1
0.056 	1
0.0567 	1
0.0574 	1
0.0581 	1
0.0588 	1
0.0595 	1
0.0602 	1
0.0609 	1
0.0616 	1
0.0623 	1
0.063 	1
0.0637 	1
0.0644 	1
0.0651 	1
0.0658 	1
0.0665 	1
0.0672 	1
0.0679 	1
0.0686 	1
0.0693 	1
0.07 	1
0.0707 	1
0.0714 	1
0.0721 	1
0.0728 	1
0.0735 	1
0.0742 	1
0.0749 	1
0.0756 	1
0.0763 	1
0.077 	1
0.0777 	1
0.0784 	1
0.0791 	1
0.0798 	1
0.0805 	1
0.0812 	1
0.0819 	1
0.0826 	1
0.0833 	1
0.084 	1
0.0847 	1
0.0854 	1
0.0861 	1
0.0868 	1
0.0875 	1
0.0882 	1
0.0889 	1
0.0896 	1
0.0903 	1
0.091 	1
0.0917 	1
0.0924 	1
0.0931 	1
0.0938 	1
0.0945 	1
0.0952 	1
0.0959 	1
0.0966 	1
0.0973 	1
0.098 	1
0.0987 	1
0.0994 	1
0.1001 	1
0.1008 	1
0.1015 	1
0.1022 	1
0.1029 	1
0.1036 	1
0.1043 	1
0.105 	1
0.1057 	1
0.1064 	1
0.1071 	1
0.1078 	1
0.1085 	1
0.1092 	1
0.1099 	1
0.1106 	1
0.1113 	1
0.112 	1
0.1127 	1
0.1134 	1
0.1141 	1
0.1148 	1
0.1155 	1
0.1162 	1
0.1169 	1
0.1176 	1
0.1183 	1
0.119 	1
0.1197 	1
0.1204 	1
0.1211 	1
0.1218 	1
0.1225 	1
0.1232 	1
0.1239 	1
0.1246 	1
0.1253 	1
0.126 	1
0.1267 	1
0.1274 	1
0.1281 	1
0.1288 	1
0.1295 	1
0.1302 	1
0.1309 	1
0.1316 	1
0.1323 	1
0.133 	1
0.1337 	1
0.1344 	1
0.1351 	1
0.1358 	1
0.1365 	1
0.1372 	1
0.1379 	1
0.1386 	1
0.1393 	1
0.14 	1
0.1407 	1
0.1414 	1
0.1421 	1
0.1428 	1
0.1435 	1
0.1442 	1
0.1449 	1
0.1456 	1
0.1463 	1
0.147 	1
0.1477 	1
0.1484 	1
0.1491 	1
0.1498 	1
0.1505 	1
0.1512 	1
0.1519 	1
0.1526 	1
0.1533 	1
0.154 	1
0.1547 	1
0.1554 	1
0.1561 	1
0.1568 	1
0.1575 	1
0.1582 	1
0.1589 	1
0.1596 	1
0.1603 	1
0.161 	1
0.1617 	1
0.1624 	1
0.1631 	1
0.1638 	1
0.1645 	1
0.1652 	1
0.1659 	1
0.1666 	1
0.1673 	1
0.168 	1
0.1687 	1
0.1694 	1
0.1701 	1
0.1708 	1
0.1715 	1
0.1722 	1
0.1729 	1
0.1736 	1
0.1743 	1
0.175 	1
0.1757 	1
0.1764 	1
0.1771 	1
0.1778 	1
0.1785 	1
0.1792 	1
0.1799 	1
0.1806 	1
0.1813 	1
0.182 	1
0.1827 	1
0.1834 	1
0.1841 	1
0.1848 	1
0.1855 	1
0.1862 	1
0.1869 	1
0.1876 	1
0.1883 	1
0.189 	1
0.1897 	1
0.1904 	1
0.1911 	1
0.1918 	1
0.1925 	1
0.1932 	1
0.1939 	1
0.1946 	1
0.1953 	1
0.196 	1
0.1967 	1
0.1974 	0.999999
0.1981 	0.999999
0.1988 	0.999999
0.1995 	0.999998
0.2002 	0.999998
0.2009 	0.999998
0.2016 	0.999905
0.2023 	0.999742
0.203 	0.999718
0.2037 	0.999694
0.2044 	0.999495
0.2051 	0.999318
0.2058 	0.999356
0.2065 	0.997075
0.2072 	0.990696
0.2079 	0.988804
0.2086 	0.986912
0.2093 	0.979921
0.21 	0.971539
0.2107 	0.967897
0.2114 	0.956212
0.2121 	0.915029
0.2128 	0.889486
0.2135 	0.86618
0.2142 	0.818744
0.2149 	0.757903
0.2156 	0.703321
0.2163 	0.649198
0.217 	0.587504
0.2177 	0.526407
0.2184 	0.465528
0.2191 	0.400571
0.2198 	0.331536
0.2205 	0.260224
0.2212 	0.188
0.2219 	0.156311
0.2226 	0.117168
0.2233 	0.070713
0.224 	0.0398453
0.2247 	0.0370363
0.2254 	0.0306919
0.2261 	0.021696
0.2268 	0.018319
0.2275 	0.01406
0.2282 	0.00684183
0.2289 	0.00115576
0.2296 	0.00108776
0.2303 	0.000937479
0.231 	0.000677503
0.2317 	0.0005503
0.2324 	0.000448874
0.2331 	0.000239355
0.2338 	4.45861e-05
0.2345 	4.15817e-05
0.2352 	3.66399e-05
0.2359 	2.68544e-05
0.2366 	2.09268e-05
0.2373 	1.79052e-05
0.238 	1.00872e-05
0.2387 	2.26928e-06
0.2394 	1.61553e-06
0.2401 	1.47347e-06
0.2408 	1.09466e-06
0.2415 	8.23562e-07
0.2422 	7.40925e-07
0.2429 	4.35845e-07
0.2436 	1.30764e-07
0.2443 	6.26324e-08
0.245 	5.91264e-08
0.2457 	4.45117e-08
0.2464 	3.2409e-08
0.2471 	2.95171e-08
0.2478 	1.87265e-08
0.2485 	6.87862e-09
0.2492 	2.56628e-09
0.2499 	2.44047e-09
0.2506 	1.91704e-09
0.2513 	1.36126e-09
0.252 	1.24661e-09
0.2527 	8.60729e-10
0.2534 	3.79611e-10
0.2541 	1.35986e-10
0.2548 	1.29859e-10
0.2555 	1.08865e-10
0.2562 	8.1924e-11
0.2569 	7.437e-11
0.2576 	5.85686e-11
0.2583 	3.62282e-11
0.259 	2.1342e-11
0.2597 	1.98737e-11
0.2604 	1.77453e-11
0.2611 	1.51217e-11
0.2618 	1.36765e-11
0.2625 	1.20733e-11
0.2632 	9.89916e-12
0.2639 	8.0459e-12
0.2646 	7.36929e-12
0.2653 	6.61656e-12
0.266 	5.76233e-12
0.2667 	5.15994e-12
0.2674 	4.63243e-12
0.2681 	3.96327e-12
0.2688 	3.322e-12
0.2695 	3.04314e-12
0.2702 	2.74685e-12
0.2709 	2.40701e-12
0.2716 	2.14285e-12
0.2723 	1.94263e-12
0.273 	1.68617e-12
0.2737 	1.42971e-12
0.2744 	1.31308e-12
0.2751 	1.20302e-12
0.2758 	1.06779e-12
0.2765 	9.53171e-13
0.2772 	8.74894e-13
0.2779 	7.72041e-13
0.2786 	6.69188e-13
0.2793 	6.11398e-13
0.28 	5.65899e-13
0.2807 	5.04069e-13
0.2814 	4.47794e-13
0.2821 	4.11884e-13
0.2828 	3.6518e-13
0.2835 	3.1713e-13
0.2842 	2.85603e-13
0.2849 	2.63257e-13
0.2856 	2.33259e-13
0.2863 	2.02979e-13
0.287 	1.856e-13
0.2877 	1.631e-13
0.2884 	1.38868e-13
0.2891 	1.21524e-13
0.2898 	1.11068e-13
0.2905 	9.75657e-14
0.2912 	8.28449e-14
0.2919 	7.46898e-14
0.2926 	6.4917e-14
0.2933 	5.37612e-14
0.294 	4.51104e-14
0.2947 	4.09687e-14
0.2954 	3.58471e-14
0.2961 	2.99905e-14
0.2968 	2.64626e-14
0.2975 	2.28959e-14
0.2982 	1.85498e-14
0.2989 	1.48338e-14
0.2996 	1.34285e-14
0.3003 	1.17669e-14
0.301 	9.76331e-15
0.3017 	8.43028e-15
0.3024 	7.30708e-15
0.3031 	5.84114e-15
0.3038 	4.4491e-15
0.3045 	4.01797e-15
0.3052 	3.53317e-15
0.3059 	2.91419e-15
0.3066 	2.45935e-15
0.3073 	2.14041e-15
0.308 	1.69281e-15
0.3087 	1.24521e-15
0.3094 	1.09997e-15
0.3101 	9.70416e-16
0.3108 	7.9539e-16
0.3115 	6.54037e-16
0.3122 	5.7162e-16
0.3129 	4.46958e-16
0.3136 	3.22296e-16
0.3143 	2.7109e-16
0.315 	2.39919e-16
0.3157 	1.95527e-16
0.3164 	1.56314e-16
0.3171 	1.36091e-16
0.3178 	1.06188e-16
0.3185 	7.51651e-17
0.3192 	5.9543e-17
0.3199 	5.2477e-17
0.3206 	4.29334e-17
0.3213 	3.33653e-17
0.322 	2.88481e-17
0.3227 	2.25996e-17
0.3234 	1.57878e-17
0.3241 	1.16703e-17
0.3248 	1.02472e-17
0.3255 	8.42652e-18
0.3262 	6.44671e-18
0.3269 	5.46744e-18
0.3276 	4.30774e-18
0.3283 	2.98526e-18
0.329 	2.04376e-18
0.3297 	1.78806e-18
0.3304 	1.47829e-18
0.3311 	1.12797e-18
0.3318 	9.26038e-19
0.3325 	7.33409e-19
0.3332 	5.05738e-19
0.3339 	3.18098e-19
0.3346 	2.7725e-19
0.3353 	2.30377e-19
0.336 	1.75475e-19
0.3367 	1.39337e-19
0.3374 	1.10706e-19
0.3381 	7.61148e-20
0.3388 	4.35842e-20
0.3395 	3.7842e-20
0.3402 	3.15848e-20
0.3409 	2.40401e-20
0.3416 	1.84647e-20
0.3423 	1.46743e-20
0.343 	1.00822e-20
0.3437 	5.4901e-21
0.3444 	4.50822e-21
0.3451 	3.77599e-21
0.3458 	2.87519e-21
0.3465 	2.13849e-21
0.3472 	1.69328e-21
0.3479 	1.16549e-21
0.3486 	6.37691e-22
0.3493 	4.65769e-22
0.35 	3.90906e-22
0.3507 	2.98054e-22
0.3514 	2.1507e-22
0.3521 	1.68269e-22
0.3528 	1.16706e-22
0.3535 	6.46329e-23
0.3542 	4.16931e-23
0.3549 	3.4939e-23
0.3556 	2.69086e-23
0.3563 	1.89453e-23
0.357 	1.46183e-23
0.3577 	1.02501e-23
0.3584 	5.86903e-24
0.3591 	3.41128e-24
0.3598 	2.87692e-24
0.3605 	2.25444e-24
0.3612 	1.59672e-24
0.3619 	1.20676e-24
0.3626 	8.64007e-25
0.3633 	5.37599e-25
0.364 	3.12218e-25
0.3647 	2.68687e-25
0.3654 	2.17881e-25
0.3661 	1.61619e-25
0.3668 	1.21575e-25
0.3675 	9.05267e-26
0.3682 	6.44829e-26
0.3689 	4.27857e-26
0.3696 	3.70272e-26
0.3703 	3.06593e-26
0.371 	2.3479e-26
0.3717 	1.76922e-26
0.3724 	1.33048e-26
0.3731 	1.01561e-26
0.3738 	7.16082e-27
0.3745 	6.16008e-27
0.3752 	5.09524e-27
0.3759 	3.87012e-27
0.3766 	2.83459e-27
0.3773 	2.05243e-27
0.378 	1.53604e-27
0.3787 	1.01966e-27
0.3794 	8.5352e-28
0.3801 	7.08907e-28
0.3808 	5.3179e-28
0.3815 	3.75177e-28
0.3822 	2.57978e-28
0.3829 	1.86892e-28
0.3836 	1.15806e-28
0.3843 	8.94822e-29
0.385 	7.53667e-29
0.3857 	5.63714e-29
0.3864 	3.86822e-29
0.3871 	2.57822e-29
0.3878 	1.80815e-29
0.3885 	1.08979e-29
0.3892 	7.5949e-30
0.3899 	6.44774e-30
0.3906 	4.88218e-30
0.3913 	3.28329e-30
0.392 	2.15758e-30
0.3927 	1.44918e-30
0.3934 	8.67161e-31
0.3941 	5.37452e-31
0.3948 	4.60058e-31
0.3955 	3.53733e-31
0.3962 	2.35835e-31
0.3969 	1.51012e-31
0.3976 	9.56513e-32
0.3983 	5.64046e-32
0.399 	2.9759e-32
0.3997 	2.57958e-32
0.4004 	2.02536e-32
0.4011 	1.35272e-32
0.4018 	8.3165e-33
0.4025 	4.8507e-33
0.4032 	2.80733e-33
0.4039 	1.17296e-33
0.4046 	1.03829e-33
0.4053 	8.42339e-34
0.406 	5.64693e-34
0.4067 	3.33691e-34
0.4074 	1.73311e-34
0.4081 	9.916e-35
0.4088 	3.01221e-35
0.4095 	2.7563e-35
0.4102 	2.35442e-35
0.4109 	1.58762e-35
0.4116 	9.07093e-36
0.4123 	3.97279e-36
0.413 	2.26498e-36
0.4137 	5.57168e-37
0.4144 	4.23026e-37
0.4151 	3.9378e-37
0.4158 	2.67541e-37
0.4165 	1.49175e-37
0.4172 	4.97393e-38
0.4179 	2.8537e-38
0.4186 	7.33463e-39
0.4193 	2.97781e-39
0.42 	3.21535e-39
0.4207 	2.20513e-39
0.4214 	1.21947e-39
0.4221 	3.23821e-40
0.4228 	1.50296e-40
0.4235 	4.36492e-41
0.4242 	6.6161e-42
0.4249 	8.25817e-42
0.4256 	6.16164e-42
0.4263 	3.4538e-42
0.427 	8.99339e-43
0.4277 	2.1183e-43
0.4284 	7.21541e-44
0.4291 	2.93388e-45
0.4298 	4.17102e-45
0.4305 	3.47705e-45
0.4312 	2.01063e-45
0.4319 	5.8934e-46
0.4326 	4.7874e-47
0.4333 	1.88527e-47
0.434 	2.40234e-49
0.4347 	3.6404e-49
0.4354 	3.39502e-49
0.4361 	2.03706e-49
0.4368 	7.091e-50
0.4375 	2.71333e-51
0.4382 	1.19941e-51
0.4389 	1.1263e-53
0.4396 	1.7626e-53
0.4403 	1.82932e-53
0.441 	1.13661e-53
0.4417 	4.56268e-54
0.4424 	1.38288e-55
0.4431 	6.68586e-56
0.4438 	5.5444e-58
0.4445 	8.87451e-58
0.4452 	1.02064e-57
0.4459 	6.54268e-58
0.4466 	2.93101e-58
0.4473 	9.06613e-60
0.448 	4.71759e-60
0.4487 	3.69041e-61
0.4494 	7.24634e-62
0.4501 	8.15797e-62
0.4508 	5.45937e-62
0.4515 	2.86507e-62
0.4522 	5.92366e-63
0.4529 	3.31771e-63
0.4536 	7.11756e-64
0.4543 	1.30098e-64
0.455 	1.00534e-64
0.4557 	7.20789e-65
0.4564 	4.63679e-65
0.4571 	3.07175e-65
0.4578 	1.76963e-65
0.4585 	4.90321e-66
0.4592 	2.85585e-67
0.4599 	2.09972e-67
0.4606 	1.50124e-67
0.4613 	9.46107e-68
0.462 	6.12798e-68
0.4627 	3.55366e-68
0.4634 	1.1959e-68
0.4641 	1.53413e-70
0.4648 	1.20025e-70
0.4655 	8.71828e-71
0.4662 	5.4559e-71
0.4669 	3.19386e-71
0.4676 	1.72956e-71
0.4683 	6.78274e-72
0.469 	1.63525e-74
0.4697 	-6.26244e-75
0.4704 	-8.30835e-75
0.4711 	5.07252e-75
0.4718 	5.1296e-75
0.4725 	2.61553e-75
0.4732 	1.19229e-75
0.4739 	-4.24495e-75
0.4746 	-2.44005e-74
0.4753 	-2.72816e-74
0.476 	-7.13002e-75
0.4767 	1.42148e-76
0.4774 	2.17911e-76
0.4781 	2.17842e-76
0.4788 	-1.09694e-75
0.4795 	-1.9504e-74
0.4802 	-2.73919e-74
0.4809 	-8.98205e-75
0.4816 	2.60171e-76
0.4823 	3.19349e-76
0.483 	3.20557e-76
0.4837 	3.21764e-76
0.4844 	-1.48813e-74
0.4851 	-2.65757e-74
0.4858 	-1.01998e-74
0.4865 	3.41933e-76
0.4872 	3.79455e-76
0.4879 	3.80758e-76
0.4886 	3.82061e-76
0.4893 	-1.0799e-74
0.49 	-2.50299e-74
0.4907 	-1.07958e-74
0.4914 	3.92672e-76
0.4921 	4.13342e-76
0.4928 	4.16122e-76
0.4935 	4.17436e-76
0.4942 	-7.36172e-75
0.4949 	-1.94634e-74
0.4956 	-1.08166e-74
0.4963 	4.22466e-76
0.497 	4.05855e-76
0.4977 	4.03224e-76
0.4984 	4.04492e-76
0.4991 	-4.64517e-75
0.4998 	-1.47458e-74
0.5005 	-1.04149e-74
0.5012 	-3.11226e-76
0.5019 	3.19855e-76
0.5026 	2.85427e-76
0.5033 	2.8661e-76
0.504 	-2.68666e-75
0.5047 	-1.1014e-74
0.5054 	-9.82286e-75
0.5061 	-1.49281e-75
0.5068 	1.87453e-76
0.5075 	1.20934e-76
0.5082 	1.22005e-76
0.5089 	-1.33528e-75
0.5096 	-8.13998e-75
0.5103 	-9.11106e-75
0.511 	-2.30399e-75
0.5117 	7.3264e-77
0.5124 	1.95425e-77
0.5131 	2.04856e-77
0.5138 	-3.71815e-76
0.5145 	-5.87654e-75
0.5152 	-8.23512e-75
0.5159 	-2.72836e-75
0.5166 	7.77206e-78
0.5173 	-1.92476e-77
0.518 	-1.84348e-77
0.5187 	-1.7622e-77
0.5194 	-4.11897e-75
0.5201 	-7.27366e-75
0.5208 	-2.85503e-75
0.5215 	-1.84757e-77
0.5222 	-2.88769e-77
0.5229 	-2.81859e-77
0.5236 	-2.74949e-77
0.5243 	-2.79805e-75
0.525 	-6.32442e-75
0.5257 	-2.79661e-75
0.5264 	-2.5325e-77
0.5271 	-2.80379e-77
0.5278 	-2.76923e-77
0.5285 	-2.71075e-77
0.5292 	-1.82972e-75
0.5299 	-4.63413e-75
0.5306 	-2.62993e-75
0.5313 	-2.4736e-77
0.532 	-2.53015e-77
0.5327 	-2.50326e-77
0.5334 	-2.45352e-77
0.5341 	-1.13332e-75
0.5348 	-3.35141e-75
0.5355 	-2.40005e-75
0.5362 	-1.80896e-76
0.5369 	-2.26518e-77
0.5376 	-2.24808e-77
0.5383 	-2.20518e-77
0.539 	-6.4243e-76
0.5397 	-2.38028e-75
0.5404 	-2.13147e-75
0.5411 	-3.92675e-76
0.5418 	-2.01313e-77
0.5425 	-1.99805e-77
0.5432 	-1.96036e-77
0.5439 	-3.06749e-76
0.5446 	-1.64816e-75
0.5453 	-1.83942e-75
0.546 	-4.97127e-76
0.5467 	-1.76676e-77
0.5474 	-1.74794e-77
0.5481 	-1.71427e-77
0.5488 	-8.92832e-77
0.5495 	-1.10367e-75
0.5502 	-1.53817e-75
0.5509 	-5.22957e-76
0.5516 	-1.5221e-77
0.5523 	-1.49515e-77
0.553 	-1.46488e-77
0.5537 	-1.4346e-77
0.5544 	-7.0883e-76
0.5551 	-1.24296e-75
0.5558 	-4.94247e-76
0.5565 	-1.27955e-77
0.5572 	-1.24193e-77
0.5579 	-1.2149e-77
0.5586 	-1.18788e-77
0.5593 	-4.32895e-76
0.56 	-9.68808e-76
0.5607 	-4.32177e-76
0.5614 	-1.04382e-77
0.5621 	-9.9736e-78
0.5628 	-9.72156e-78
0.5635 	-9.48559e-78
0.5642 	-2.48886e-76
0.5649 	-6.21419e-76
0.5656 	-3.54777e-76
0.5663 	-8.22581e-78
0.567 	-7.735e-78
0.5677 	-7.47388e-78
0.5684 	-7.27488e-78
0.5691 	-1.32765e-76
0.5698 	-3.83947e-76
0.5705 	-2.75912e-76
0.5712 	-2.41896e-77
0.5719 	-5.77716e-78
0.5726 	-5.50829e-78
0.5733 	-5.34761e-78
0.574 	-6.39675e-77
0.5747 	-2.28394e-76
0.5754 	-2.04656e-76
0.5761 	-3.97956e-77
0.5768 	-4.15296e-78
0.5775 	-3.8911e-78
0.5782 	-3.76747e-78
0.5789 	-2.60982e-77
0.5796 	-1.30763e-76
0.5803 	-1.45573e-76
0.581 	-4.05787e-77
0.5817 	-2.87555e-78
0.5824 	-2.63874e-78
0.5831 	-2.54822e-78
0.5838 	-7.09956e-78
0.5845 	-7.19971e-77
0.5852 	-9.97425e-77
0.5859 	-3.46072e-77
0.5866 	-1.92138e-78
0.5873 	-1.72272e-78
0.588 	-1.65954e-78
0.5887 	-1.59637e-78
0.5894 	-3.80466e-77
0.5901 	-6.60656e-77
0.5908 	-2.66436e-77
0.5915 	-1.24211e-78
0.5922 	-1.08651e-78
0.5929 	-1.04434e-78
0.5936 	-1.00218e-78
0.5943 	-1.92213e-77
0.595 	-4.24207e-77
0.5957 	-1.91146e-77
0.5964 	-7.79121e-79
0.5971 	-6.69974e-79
0.5978 	-6.37274e-79
0.5985 	-6.1023e-79
0.5992 	-9.21779e-78
0.5999 	-2.26224e-77
0.6006 	-1.299e-77
0.6013 	-4.75472e-79
0.602 	-4.06113e-79
0.6027 	-3.78233e-79
0.6034 	-3.61487e-79
0.6041 	-4.14226e-78
0.6048 	-1.17206e-77
0.6055 	-8.44346e-78
0.6062 	-8.24151e-79
0.6069 	-2.40416e-79
0.6076 	-2.18857e-79
0.6083 	-2.08805e-79
0.609 	-1.70034e-78
0.6097 	-5.89476e-78
0.6104 	-5.2817e-78
0.6111 	-1.06304e-78
0.6118 	-1.39182e-79
0.6125 	-1.23667e-79
0.6132 	-1.17799e-79
0.6139 	-6.00397e-79
0.6146 	-2.87405e-78
0.6153 	-3.19288e-78
0.616 	-9.05267e-79
0.6167 	-7.88678e-80
0.6174 	-6.83174e-80
0.6181 	-6.49795e-80
0.6188 	-1.4812e-79
0.6195 	-1.3555e-78
0.6202 	-1.87072e-78
0.6209 	-6.55495e-79
0.6216 	-4.37675e-80
0.6223 	-3.69225e-80
0.623 	-3.5069e-80
0.6237 	-3.32155e-80
0.6244 	-6.16355e-79
0.6251 	-1.06441e-78
0.6258 	-4.31976e-79
0.6265 	-2.37916e-80
0.6272 	-1.9527e-80
0.6279 	-1.85212e-80
0.6286 	-1.75154e-80
0.6293 	-2.68766e-79
0.63 	-5.88815e-79
0.6307 	-2.66463e-79
0.6314 	-1.26647e-80
0.6321 	-1.02316e-80
0.6328 	-9.568e-81
0.6335 	-9.03419e-81
0.6342 	-1.11412e-79
0.6349 	-2.70963e-79
0.6356 	-1.55963e-79
0.6363 	-6.59514e-81
0.637 	-5.3168e-81
0.6377 	-4.82813e-81
0.6384 	-4.55089e-81
0.6391 	-4.32433e-80
0.6398 	-1.20906e-79
0.6405 	-8.71793e-80
0.6412 	-8.89738e-81
0.6419 	-2.69642e-81
0.6426 	-2.37311e-81
0.6433 	-2.23226e-81
0.644 	-1.52748e-80
0.6447 	-5.20477e-80
0.6454 	-4.6617e-80
0.6461 	-9.53349e-81
0.6468 	-1.32902e-81
0.6475 	-1.13069e-81
0.6482 	-1.0608e-81
0.6489 	-4.61345e-81
0.6496 	-2.14488e-80
0.6503 	-2.37889e-80
0.651 	-6.8018e-81
0.6517 	-6.32507e-82
0.6524 	-5.18376e-82
0.6531 	-4.84637e-82
0.6538 	-9.80847e-82
0.6545 	-8.36649e-81
0.6552 	-1.15113e-80
0.6559 	-4.0539e-81
0.6566 	-2.8798e-82
0.6573 	-2.26292e-82
0.658 	-2.10563e-82
0.6587 	-1.94833e-82
0.6594 	-3.04097e-81
0.6601 	-5.22652e-81
0.6608 	-2.12775e-81
0.6615 	-1.2387e-82
0.6622 	-9.27635e-83
0.6629 	-8.57622e-83
0.6636 	-7.87609e-83
0.6643 	-1.0085e-81
0.665 	-2.19371e-81
0.6657 	-9.9461e-82
0.6664 	-4.9523e-83
0.6671 	-3.582e-83
0.6678 	-3.21553e-83
0.6685 	-2.92291e-83
0.6692 	-2.96747e-82
0.6699 	-7.14511e-82
0.6706 	-4.11411e-82
0.6713 	-1.80272e-83
0.672 	-1.28332e-83
0.6727 	-1.0849e-83
0.6734 	-9.72548e-84
0.6741 	-7.45709e-83
0.6748 	-2.05385e-82
0.6755 	-1.47935e-82
0.6762 	-1.51785e-83
0.6769 	-4.07027e-84
0.6776 	-3.20113e-84
0.6783 	-2.8158e-84
0.679 	-1.51323e-83
0.6797 	-5.03122e-83
0.6804 	-4.49457e-83
0.6811 	-9.16943e-84
0.6818 	-1.10505e-84
0.6825 	-7.95878e-85
0.6832 	-6.8197e-85
0.6839 	-2.25508e-84
0.6846 	-1.0014e-83
0.6853 	-1.10575e-83
0.686 	-3.14739e-84
0.6867 	-2.45157e-85
0.6874 	-1.58351e-85
0.6881 	-1.30688e-85
0.6888 	-1.98519e-85
0.6895 	-1.50777e-84
0.6902 	-2.06044e-84
0.6909 	-7.2167e-85
0.6916 	-4.14272e-86
0.6923 	-2.33047e-86
0.693 	-1.81636e-86
0.6937 	-1.30225e-86
0.6944 	-1.51566e-85
0.6951 	-2.57861e-85
0.6958 	-1.04347e-85
0.6965 	-4.71999e-87
0.6972 	-2.23773e-87
0.6979 	-1.59737e-87
0.6986 	-9.56999e-88
0.6993 	-6.49306e-88
0.7 	-4.32341e-88
