0 	1
0.0007 	1
0.0014 	1
0.0021 	1
0.0028 	1
0.0035 	1
0.0042 	1
0.0049 	1
0.0056 	1
0.0063 	1
0.007 	1
0.0077 	1
0.0084 	1
0.0091 	1
0.0098 	1
0.0105 	1
0.0112 	1
0.0119 	1
0.0126 	1
0.0133 	1
0.014 	1
0.0147 	1
0.0154 	1
0.0161 	1
0.0168 	1
0.0175 	1
0.0182 	1
0.0189 	1
0.0196 	1
0.0203 	1
0.021 	1
0.0217 	1
0.0224 	1
0.0231 	1
0.0238 	1
0.0245 	1
0.0252 	1
0.0259 	1
0.0266 	1
0.0273 	1
0.028 	1
0.0287 	1
0.0294 	1
0.0301 	1
0.0308 	1
0.0315 	1
0.0322 	1
0.0329 	1
0.0336 	1
0.0343 	1
0.035 	1
0.0357 	1
0.0364 	1
0.0371 	1
0.0378 	1
0.0385 	1
0.0392 	1
0.0399 	1
0.0406 	1
0.0413 	1
0.042 	1
0.0427 	1
0.0434 	1
0.0441 	1
0.0448 	1
0.0455 	1
0.0462 	1
0.0469 	1
0.0476 	1
0.0483 	1
0.049 	1
0.0497 	1
0.0504 	1
0.0511 	1
0.0518 	1
0.0525 	1
0.0532 	1
0.0539 	1
0.0546 	1
0.0553 	1
0.056 	1
0.0567 	1
0.0574 	1
0.0581 	1
0.0588 	1
0.0595 	1
0.0602 	1
0.0609 	1
0.0616 	1
0.0623 	1
0.063 	1
0.0637 	1
0.0644 	1
0.0651 	1
0.0658 	1
0.0665 	1
0.0672 	1
0.0679 	1
0.0686 	1
0.0693 	1
0.07 	1
0.0707 	1
0.0714 	1
0.0721 	1
0.0728 	1
0.0735 	1
0.0742 	1
0.0749 	1
0.0756 	1
0.0763 	1
0.077 	1
0.0777 	1
0.0784 	1
0.0791 	1
0.0798 	1
0.0805 	1
0.0812 	1
0.0819 	1
0.0826 	1
0.0833 	1
0.084 	1
0.0847 	1
0.0854 	1
0.0861 	1
0.0868 	1
0.0875 	1
0.0882 	1
0.0889 	1
0.0896 	1
0.0903 	1
0.091 	1
0.0917 	1
0.0924 	1
0.0931 	1
0.0938 	1
0.0945 	1
0.0952 	1
0.0959 	1
0.0966 	1
0.0973 	1
0.098 	1
0.0987 	1
0.0994 	1
0.1001 	1
0.1008 	1
0.1015 	1
0.1022 	1
0.1029 	1
0.1036 	1
0.1043 	1
0.105 	1
0.1057 	1
0.1064 	1
0.1071 	1
0.1078 	1
0.1085 	1
0.1092 	1
0.1099 	1
0.1106 	1
0.1113 	1
0.112 	1
0.1127 	1
0.1134 	1
0.1141 	1
0.1148 	1
0.1155 	1
0.1162 	1
0.1169 	1
0.1176 	1
0.1183 	1
0.119 	1
0.1197 	1
0.1204 	1
0.1211 	1
0.1218 	1
0.1225 	1
0.1232 	1
0.1239 	1
0.1246 	1
0.1253 	1
0.126 	1
0.1267 	1
0.1274 	1
0.1281 	1
0.1288 	1
0.1295 	1
0.1302 	1
0.1309 	1
0.1316 	1
0.1323 	1
0.133 	1
0.1337 	1
0.1344 	1
0.1351 	1
0.1358 	1
0.1365 	1
0.1372 	1
0.1379 	1
0.1386 	1
0.1393 	1
0.14 	1
0.1407 	1
0.1414 	1
0.1421 	1
0.1428 	1
0.1435 	1
0.1442 	1
0.1449 	1
0.1456 	1
0.1463 	1
0.147 	1
0.1477 	1
0.1484 	1
0.1491 	1
0.1498 	1
0.1505 	1
0.1512 	1
0.1519 	1
0.1526 	1
0.1533 	1
0.154 	1
0.1547 	1
0.1554 	1
0.1561 	1
0.1568 	1
0.1575 	1
0.1582 	1
0.1589 	1
0.1596 	1
0.1603 	1
0.161 	1
0.1617 	1
0.1624 	1
0.1631 	1
0.1638 	1
0.1645 	1
0.1652 	1
0.1659 	1
0.1666 	1
0.1673 	1
0.168 	1
0.1687 	1
0.1694 	1
0.1701 	1
0.1708 	1
0.1715 	1
0.1722 	1
0.1729 	1
0.1736 	1
0.1743 	1
0.175 	1
0.1757 	1
0.1764 	1
0.1771 	1
0.1778 	1
0.1785 	1
0.1792 	1
0.1799 	1
0.1806 	1
0.1813 	1
0.182 	1
0.1827 	1
0.1834 	1
0.1841 	1
0.1848 	1
0.1855 	1
0.1862 	1
0.1869 	1
0.1876 	1
0.1883 	1
0.189 	1
0.1897 	1
0.1904 	1
0.1911 	1
0.1918 	1
0.1925 	1
0.1932 	1
0.1939 	1
0.1946 	1
0.1953 	1
0.196 	1
0.1967 	1
0.1974 	1
0.1981 	1
0.1988 	1
0.1995 	1
0.2002 	1
0.2009 	1
0.2016 	1
0.2023 	1
0.203 	1
0.2037 	1
0.2044 	1
0.2051 	1
0.2058 	1
0.2065 	1
0.2072 	1
0.2079 	1
0.2086 	1
0.2093 	1
0.21 	1
0.2107 	1
0.2114 	1
0.2121 	1
0.2128 	1
0.2135 	1
0.2142 	1
0.2149 	1
0.2156 	1
0.2163 	1
0.217 	1
0.2177 	1
0.2184 	1
0.2191 	1
0.2198 	1
0.2205 	1
0.2212 	1
0.2219 	1
0.2226 	1
0.2233 	1
0.224 	1
0.2247 	1
0.2254 	1
0.2261 	1
0.2268 	1
0.2275 	1
0.2282 	1
0.2289 	1
0.2296 	1
0.2303 	1
0.231 	1
0.2317 	1
0.2324 	1
0.2331 	1
0.2338 	1
0.2345 	1
0.2352 	1
0.2359 	1
0.2366 	1
0.2373 	1
0.238 	1
0.2387 	1
0.2394 	1
0.2401 	1
0.2408 	1
0.2415 	1
0.2422 	1
0.2429 	1
0.2436 	1
0.2443 	1
0.245 	1
0.2457 	1
0.2464 	1
0.2471 	1
0.2478 	1
0.2485 	1
0.2492 	1
0.2499 	1
0.2506 	1
0.2513 	1
0.252 	1
0.2527 	1
0.2534 	1
0.2541 	1
0.2548 	1
0.2555 	1
0.2562 	1
0.2569 	1
0.2576 	1
0.2583 	1
0.259 	1
0.2597 	1
0.2604 	1
0.2611 	0.999999
0.2618 	0.999999
0.2625 	0.999999
0.2632 	0.999998
0.2639 	0.999997
0.2646 	0.999996
0.2653 	0.999995
0.266 	0.999994
0.2667 	0.999986
0.2674 	0.999976
0.2681 	0.999965
0.2688 	0.999947
0.2695 	0.999914
0.2702 	0.999885
0.2709 	0.999863
0.2716 	0.999537
0.2723 	0.998907
0.273 	0.998277
0.2737 	0.997352
0.2744 	0.99548
0.2751 	0.993625
0.2758 	0.992139
0.2765 	0.986458
0.2772 	0.973224
0.2779 	0.95999
0.2786 	0.944789
0.2793 	0.915538
0.28 	0.883771
0.2807 	0.854245
0.2814 	0.819211
0.2821 	0.763985
0.2828 	0.708758
0.2835 	0.652723
0.2842 	0.575403
0.2849 	0.488907
0.2856 	0.401342
0.2863 	0.315864
0.287 	0.259819
0.2877 	0.203774
0.2884 	0.14773
0.2891 	0.114002
0.2898 	0.0961202
0.2905 	0.0758815
0.2912 	0.0547
0.2919 	0.0400742
0.2926 	0.0259527
0.2933 	0.0118313
0.294 	0.00557033
0.2947 	0.00474603
0.2954 	0.00378473
0.2961 	0.00272067
0.2968 	0.00193757
0.2975 	0.00123108
0.2982 	0.000524598
0.2989 	0.000130641
0.2996 	0.000113355
0.3003 	9.26617e-05
0.301 	6.74248e-05
0.3017 	4.70907e-05
0.3024 	2.94805e-05
0.3031 	1.18703e-05
0.3038 	4.3529e-07
0.3045 	3.8919e-07
0.3052 	3.31977e-07
0.3059 	2.46978e-07
0.3066 	1.73074e-07
0.3073 	1.10267e-07
0.308 	4.74587e-08
0.3087 	1.77409e-09
0.3094 	1.78401e-10
0.3101 	1.60279e-10
0.3108 	1.23137e-10
0.3115 	8.90607e-11
0.3122 	6.05007e-11
0.3129 	3.19407e-11
0.3136 	9.03629e-12
0.3143 	7.66257e-12
0.315 	8.12219e-12
0.3157 	8.59294e-12
0.3164 	9.04245e-12
0.3171 	9.41408e-12
0.3178 	9.78572e-12
0.3185 	1.016e-11
0.3192 	1.04889e-11
0.3199 	1.07831e-11
0.3206 	1.10907e-11
0.3213 	1.13919e-11
0.322 	1.15809e-11
0.3227 	1.17699e-11
0.3234 	1.19589e-11
0.3241 	1.20458e-11
0.3248 	1.20723e-11
0.3255 	1.21038e-11
0.3262 	1.21372e-11
0.3269 	1.20636e-11
0.3276 	1.19818e-11
0.3283 	1.19e-11
0.329 	1.17372e-11
0.3297 	1.14929e-11
0.3304 	1.12516e-11
0.3311 	1.10126e-11
0.3318 	1.0691e-11
0.3325 	1.03469e-11
0.3332 	1.00028e-11
0.3339 	9.59286e-12
0.3346 	9.08101e-12
0.3353 	8.56952e-12
0.336 	8.0585e-12
0.3367 	7.54099e-12
0.3374 	7.01987e-12
0.3381 	6.49874e-12
0.3388 	5.96618e-12
0.3395 	5.41452e-12
0.3402 	4.85993e-12
0.3409 	4.29801e-12
0.3416 	3.79047e-12
0.3423 	3.3373e-12
0.343 	2.88414e-12
0.3437 	2.44668e-12
0.3444 	2.13206e-12
0.3451 	1.82316e-12
0.3458 	1.5024e-12
0.3465 	1.2171e-12
0.3472 	9.95617e-13
0.3479 	7.7413e-13
0.3486 	5.64267e-13
0.3493 	4.64543e-13
0.35 	3.85984e-13
0.3507 	3.00692e-13
0.3514 	2.21964e-13
0.3521 	1.67302e-13
0.3528 	1.12641e-13
0.3535 	6.00039e-14
0.3542 	4.20298e-14
0.3549 	3.49538e-14
0.3556 	2.68471e-14
0.3563 	1.87769e-14
0.357 	1.34146e-14
0.3577 	8.0522e-15
0.3584 	2.68984e-15
0.3591 	1.02819e-15
0.3598 	8.79562e-16
0.3605 	6.9116e-16
0.3612 	4.86848e-16
0.3619 	3.41057e-16
0.3626 	1.99767e-16
0.3633 	5.84768e-17
0.364 	4.33382e-18
0.3647 	3.87789e-18
0.3654 	3.18507e-18
0.3661 	2.31458e-18
0.3668 	1.61531e-18
0.3675 	9.62744e-19
0.3682 	3.10174e-19
0.3689 	2.17696e-21
0.3696 	2.0607e-21
0.3703 	1.79944e-21
0.371 	1.34486e-21
0.3717 	9.45924e-22
0.3724 	5.77911e-22
0.3731 	2.09898e-22
0.3738 	1.4101e-25
0.3745 	1.3518e-25
0.3752 	1.22538e-25
0.3759 	9.28696e-26
0.3766 	6.58705e-26
0.3773 	4.1541e-26
0.378 	1.72115e-26
0.3787 	3.90222e-28
0.3794 	8.85979e-30
0.3801 	8.27485e-30
0.3808 	6.34301e-30
0.3815 	4.53296e-30
0.3822 	2.94212e-30
0.3829 	1.35127e-30
0.3836 	7.36779e-32
0.3843 	5.66989e-34
0.385 	5.4776e-34
0.3857 	4.24503e-34
0.3864 	3.05744e-34
0.3871 	2.03472e-34
0.3878 	1.012e-34
0.3885 	7.54453e-36
0.3892 	3.51503e-38
0.3899 	3.4222e-38
0.3906 	2.75414e-38
0.3913 	1.99916e-38
0.392 	1.36037e-38
0.3927 	7.21574e-39
0.3934 	8.27814e-40
0.3941 	2.11786e-42
0.3948 	2.07642e-42
0.3955 	1.73533e-42
0.3962 	1.27436e-42
0.3969 	8.81063e-43
0.3976 	4.92966e-43
0.3983 	1.04869e-43
0.399 	1.24854e-46
0.3997 	1.23131e-46
0.4004 	1.06826e-46
0.4011 	7.95843e-47
0.4018 	5.56235e-47
0.4025 	3.25575e-47
0.4032 	9.49144e-48
0.4039 	7.2492e-51
0.4046 	7.18394e-51
0.4053 	6.46676e-51
0.406 	4.88034e-51
0.4067 	3.44611e-51
0.4074 	2.09643e-51
0.4081 	7.46746e-52
0.4088 	4.16488e-55
0.4095 	4.14495e-55
0.4102 	3.86936e-55
0.4109 	2.95463e-55
0.4116 	2.1065e-55
0.4123 	1.32497e-55
0.413 	5.43434e-56
0.4137 	9.84482e-58
0.4144 	2.37199e-59
0.4151 	2.29567e-59
0.4158 	1.77196e-59
0.4165 	1.27483e-59
0.4172 	8.25547e-60
0.4179 	3.76267e-60
0.4186 	1.62617e-61
0.4193 	1.34785e-63
0.42 	1.3526e-63
0.4207 	1.05449e-63
0.4214 	7.65225e-64
0.4221 	5.084e-64
0.4228 	2.51576e-64
0.4235 	1.50031e-65
0.4242 	7.5983e-68
0.4249 	7.66069e-68
0.4256 	6.22438e-68
0.4263 	4.55451e-68
0.427 	3.09543e-68
0.4277 	1.63636e-68
0.4284 	1.77284e-69
0.4291 	4.24306e-72
0.4298 	4.29525e-72
0.4305 	3.63698e-72
0.4312 	2.69451e-72
0.4319 	1.8629e-72
0.4326 	1.03982e-72
0.4333 	2.16732e-73
0.434 	-2.16407e-75
0.4347 	-8.79429e-75
0.4354 	-7.87372e-75
0.4361 	-1.29008e-75
0.4368 	7.99208e-77
0.4375 	2.80474e-77
0.4382 	-2.3826e-77
0.4389 	-3.34797e-75
0.4396 	-1.87606e-74
0.4403 	-2.09677e-74
0.441 	-5.56754e-75
0.4417 	-7.51047e-77
0.4424 	-8.68748e-77
0.4431 	-9.8645e-77
0.4438 	-1.40463e-75
0.4445 	-1.9594e-74
0.4452 	-2.73901e-74
0.4459 	-9.20317e-75
0.4466 	-1.10541e-76
0.4473 	-1.12069e-76
0.448 	-1.13597e-76
0.4487 	-1.14598e-76
0.4494 	-1.60075e-74
0.4501 	-2.82324e-74
0.4508 	-1.11156e-74
0.4515 	-1.10975e-76
0.4522 	-1.08355e-76
0.4529 	-1.05736e-76
0.4536 	-1.03547e-76
0.4543 	-1.13658e-74
0.455 	-2.56998e-74
0.4557 	-1.13626e-74
0.4564 	-9.68927e-77
0.4571 	-9.26551e-77
0.4578 	-8.84175e-77
0.4585 	-8.44491e-77
0.4592 	-7.20938e-75
0.4599 	-1.82931e-74
0.4606 	-1.03732e-74
0.4613 	-7.76276e-77
0.462 	-7.31692e-77
0.4627 	-6.87107e-77
0.4634 	-6.42523e-77
0.4641 	-4.08057e-75
0.4648 	-1.21146e-74
0.4655 	-8.66919e-75
0.4662 	-6.32072e-76
0.4669 	-5.43362e-77
0.4676 	-5.0368e-77
0.4683 	-4.63999e-77
0.469 	-2.00928e-75
0.4697 	-7.50857e-75
0.4704 	-6.72152e-75
0.4711 	-1.21972e-75
0.4718 	-3.82739e-77
0.4725 	-3.50833e-77
0.4732 	-3.18926e-77
0.4739 	-7.95428e-76
0.4746 	-4.36505e-75
0.4753 	-4.8742e-75
0.476 	-1.30273e-75
0.4767 	-2.56863e-77
0.4774 	-2.33113e-77
0.4781 	-2.09363e-77
0.4788 	-1.76948e-76
0.4795 	-2.38022e-75
0.4802 	-3.32411e-75
0.4809 	-1.11956e-75
0.4816 	-1.64676e-77
0.4823 	-1.48124e-77
0.483 	-1.31572e-77
0.4837 	-1.19893e-77
0.4844 	-1.21522e-75
0.4851 	-2.14068e-75
0.4858 	-8.44044e-76
0.4865 	-1.01048e-77
0.4872 	-9.01738e-78
0.4879 	-7.93e-78
0.4886 	-7.03667e-78
0.4893 	-5.78546e-76
0.49 	-1.30597e-75
0.4907 	-5.78036e-76
0.4914 	-5.94359e-78
0.4921 	-5.2669e-78
0.4928 	-4.59021e-78
0.4935 	-3.95448e-78
0.4942 	-2.54857e-76
0.4949 	-6.45213e-76
0.4956 	-3.66133e-76
0.4963 	-3.35551e-78
0.497 	-2.95515e-78
0.4977 	-2.55479e-78
0.4984 	-2.15443e-78
0.4991 	-1.02358e-76
0.4998 	-3.02877e-76
0.5005 	-2.16822e-76
0.5012 	-1.61381e-77
0.5019 	-1.59446e-78
0.5026 	-1.36867e-78
0.5033 	-1.14289e-78
0.504 	-3.63384e-77
0.5047 	-1.35064e-76
0.5054 	-1.20911e-76
0.5061 	-2.20973e-77
0.5068 	-8.2778e-79
0.5075 	-7.06168e-79
0.5082 	-5.84557e-79
0.5089 	-1.05287e-77
0.5096 	-5.71755e-77
0.5103 	-6.38203e-77
0.511 	-1.71293e-77
0.5117 	-4.13767e-79
0.5124 	-3.51131e-79
0.5131 	-2.88495e-79
0.5138 	-1.76618e-78
0.5145 	-2.295e-77
0.5152 	-3.20226e-77
0.5159 	-1.08173e-77
0.5166 	-1.99314e-79
0.5173 	-1.6842e-79
0.518 	-1.37526e-79
0.5187 	-1.15948e-79
0.5194 	-8.71816e-78
0.5201 	-1.5334e-77
0.5208 	-6.05982e-78
0.5215 	-9.26206e-80
0.5222 	-7.79877e-80
0.5229 	-6.33548e-80
0.5236 	-5.13454e-80
0.5243 	-3.11934e-78
0.525 	-7.02459e-78
0.5257 	-3.11488e-78
0.5264 	-4.15422e-80
0.5271 	-3.48813e-80
0.5278 	-2.82204e-80
0.5285 	-2.19299e-80
0.5292 	-1.04287e-78
0.5299 	-2.63149e-78
0.5306 	-1.49512e-78
0.5313 	-1.80005e-80
0.532 	-1.5083e-80
0.5327 	-1.21654e-80
0.5334 	-9.24794e-81
0.5341 	-3.20939e-79
0.5348 	-9.451e-79
0.5355 	-6.77039e-79
0.5362 	-5.20885e-80
0.5369 	-6.30782e-81
0.5376 	-5.07705e-81
0.5383 	-3.84629e-81
0.539 	-8.81938e-80
0.5397 	-3.25317e-79
0.5404 	-2.91262e-79
0.5411 	-5.38244e-80
0.5418 	-2.5523e-81
0.5425 	-2.05203e-81
0.5432 	-1.55175e-81
0.5439 	-2.00428e-80
0.5446 	-1.0731e-79
0.5453 	-1.19725e-79
0.546 	-3.23366e-80
0.5467 	-1.00042e-81
0.5474 	-8.04019e-82
0.5481 	-6.07621e-82
0.5488 	-2.72298e-81
0.5495 	-3.38781e-80
0.5502 	-4.72175e-80
0.5509 	-1.60175e-80
0.5516 	-3.80299e-82
0.5523 	-3.05668e-82
0.553 	-2.31036e-82
0.5537 	-1.79203e-82
0.5544 	-1.01932e-80
0.5551 	-1.78944e-80
0.5558 	-7.09339e-81
0.5565 	-1.40141e-82
0.5572 	-1.12717e-82
0.5579 	-8.52924e-83
0.5586 	-6.27657e-83
0.5593 	-2.90785e-81
0.56 	-6.52968e-81
0.5607 	-2.90227e-81
0.5614 	-5.00775e-83
0.5621 	-4.0337e-83
0.5628 	-3.05966e-83
0.5635 	-2.13488e-83
0.5642 	-7.81326e-82
0.5649 	-1.96408e-81
0.5656 	-1.11764e-81
0.5663 	-1.73814e-83
0.567 	-1.40278e-83
0.5677 	-1.06742e-83
0.5684 	-7.32061e-84
0.5691 	-1.9495e-82
0.5698 	-5.71075e-82
0.5705 	-4.09438e-82
0.5712 	-3.26972e-83
0.5719 	-4.7461e-84
0.5726 	-3.62424e-84
0.5733 	-2.50238e-84
0.574 	-4.38074e-83
0.5747 	-1.60314e-82
0.5754 	-1.43559e-82
0.5761 	-2.68568e-83
0.5768 	-1.56278e-84
0.5775 	-1.19803e-84
0.5782 	-8.3328e-85
0.5789 	-8.21427e-84
0.5796 	-4.33635e-83
0.5803 	-4.8359e-83
0.581 	-1.31496e-83
0.5817 	-5.00819e-85
0.5824 	-3.8563e-85
0.5831 	-2.70441e-85
0.5838 	-9.45112e-85
0.5845 	-1.12877e-83
0.5852 	-1.57151e-83
0.5859 	-5.3544e-84
0.5866 	-1.56358e-85
0.5873 	-1.20978e-85
0.588 	-8.5599e-86
0.5887 	-6.10912e-86
0.5894 	-2.82203e-84
0.5901 	-4.94525e-84
0.5908 	-1.96639e-84
0.5915 	-4.76298e-86
0.5922 	-3.70331e-86
0.5929 	-2.64365e-86
0.5936 	-1.77153e-86
0.5943 	-6.73977e-85
0.595 	-1.50947e-84
0.5957 	-6.72467e-85
0.5964 	-1.4162e-86
0.5971 	-1.10657e-86
0.5978 	-7.96931e-87
0.5985 	-5.01508e-87
0.5992 	-1.52409e-85
0.5999 	-3.81833e-85
0.6006 	-2.17599e-85
0.6013 	-4.11026e-87
0.602 	-3.22796e-87
0.6027 	-2.34566e-87
0.6034 	-1.46336e-87
0.6041 	-3.21685e-86
0.6048 	-9.3802e-86
0.6055 	-6.73061e-86
0.6062 	-5.55845e-87
0.6069 	-9.20058e-88
0.6076 	-6.746e-88
0.6083 	-4.29142e-88
0.609 	-6.15464e-87
0.6097 	-2.2371e-86
0.6104 	-2.00371e-86
0.6111 	-3.79038e-87
0.6118 	-2.56496e-88
0.6125 	-1.89717e-88
0.6132 	-1.22937e-88
0.6139 	-9.91187e-88
0.6146 	-5.17131e-87
0.6153 	-5.7651e-87
0.616 	-1.5771e-87
0.6167 	-6.99643e-89
0.6174 	-5.21906e-89
0.6181 	-3.44169e-89
0.6188 	-9.99939e-89
0.6195 	-1.15599e-87
0.6202 	-1.60798e-87
0.6209 	-5.49989e-88
0.6216 	-1.86791e-89
0.6223 	-1.40495e-89
0.623 	-9.41997e-90
0.6237 	-6.21736e-90
0.6244 	-2.49065e-88
0.6251 	-4.35819e-88
0.6258 	-1.73767e-88
0.6265 	-4.88364e-90
0.6272 	-3.70281e-90
0.6279 	-2.52197e-90
0.6286 	-1.54833e-90
0.6293 	-5.14582e-89
0.63 	-1.15002e-88
0.6307 	-5.13369e-89
0.6314 	-1.25102e-90
0.6321 	-9.5594e-91
0.6328 	-6.60862e-91
0.6335 	-3.78202e-91
0.6342 	-1.01113e-89
0.6349 	-2.52626e-89
0.6356 	-1.44154e-89
0.6363 	-3.14195e-91
0.637 	-2.41905e-91
0.6377 	-1.69615e-91
0.6384 	-9.73247e-92
0.6391 	-1.86234e-90
0.6398 	-5.41038e-90
0.6405 	-3.88494e-90
0.6412 	-3.30098e-91
0.6419 	-6.00475e-92
0.6426 	-4.26699e-92
0.6433 	-2.52923e-92
0.644 	-3.12256e-91
0.6447 	-1.12876e-90
0.6454 	-1.01122e-90
0.6461 	-1.93153e-91
0.6468 	-1.46309e-92
0.6475 	-1.05288e-92
0.6482 	-6.42657e-93
0.6489 	-4.43327e-92
0.6496 	-2.29073e-91
0.6503 	-2.55313e-91
0.651 	-7.0218e-92
0.6517 	-3.5011e-93
0.6524 	-2.54955e-93
0.6531 	-1.59799e-93
0.6538 	-4.00872e-93
0.6545 	-4.5118e-92
0.6552 	-6.27138e-92
0.6559 	-2.15256e-92
0.6566 	-8.23094e-94
0.6573 	-6.06105e-94
0.658 	-3.89115e-94
0.6587 	-2.39205e-94
0.6594 	-8.59376e-93
0.6601 	-1.50186e-92
0.6608 	-6.00315e-93
0.6615 	-1.90151e-94
0.6622 	-1.41496e-94
0.6629 	-9.28416e-95
0.6636 	-5.26786e-95
0.6643 	-1.5744e-93
0.665 	-3.51188e-93
0.6657 	-1.57069e-93
0.6664 	-4.31744e-95
0.6671 	-3.24457e-95
0.6678 	-2.1717e-95
0.6685 	-1.14118e-95
0.6692 	-2.75057e-94
0.6699 	-6.85498e-94
0.6706 	-3.91654e-94
0.6713 	-9.63679e-96
0.672 	-7.3099e-96
0.6727 	-4.98301e-96
0.6734 	-2.65612e-96
0.6741 	-4.51545e-95
0.6748 	-1.30722e-94
0.6755 	-9.39338e-95
0.6762 	-8.20342e-96
0.6769 	-1.61879e-96
0.6776 	-1.12225e-96
0.6783 	-6.25705e-97
0.679 	-6.7661e-96
0.6797 	-2.43279e-95
0.6804 	-2.18e-95
0.6811 	-4.20486e-96
0.6818 	-3.52534e-97
0.6825 	-2.48235e-97
0.6832 	-1.43936e-97
0.6839 	-8.62078e-97
0.6846 	-4.41182e-96
0.6853 	-4.91605e-96
0.686 	-1.35957e-96
0.6867 	-7.5537e-98
0.6874 	-5.39616e-98
0.6881 	-3.23862e-98
0.6888 	-7.10101e-98
0.6895 	-7.77915e-97
0.6902 	-1.08049e-96
0.6909 	-3.72251e-97
0.6916 	-1.5932e-98
0.6923 	-1.15348e-98
0.693 	-7.13754e-99
0.6937 	-4.10694e-99
0.6944 	-1.32932e-97
0.6951 	-2.32002e-97
0.6958 	-9.29898e-98
0.6965 	-3.36162e-99
0.6972 	-2.62458e-99
0.6979 	-1.88754e-99
0.6986 	-1.27936e-99
0.6993 	-3.67286e-98
0.7 	-8.18551e-98
