0 	1
0.0007 	1
0.0014 	1
0.0021 	1
0.0028 	1
0.0035 	1
0.0042 	1
0.0049 	1
0.0056 	1
0.0063 	1
0.007 	1
0.0077 	1
0.0084 	1
0.0091 	1
0.0098 	1
0.0105 	1
0.0112 	1
0.0119 	1
0.0126 	1
0.0133 	1
0.014 	1
0.0147 	1
0.0154 	1
0.0161 	1
0.0168 	1
0.0175 	1
0.0182 	1
0.0189 	1
0.0196 	1
0.0203 	1
0.021 	1
0.0217 	1
0.0224 	1
0.0231 	1
0.0238 	1
0.0245 	1
0.0252 	1
0.0259 	1
0.0266 	1
0.0273 	1
0.028 	1
0.0287 	1
0.0294 	1
0.0301 	1
0.0308 	1
0.0315 	1
0.0322 	1
0.0329 	1
0.0336 	1
0.0343 	1
0.035 	1
0.0357 	1
0.0364 	1
0.0371 	1
0.0378 	1
0.0385 	1
0.0392 	1
0.0399 	1
0.0406 	1
0.0413 	1
0.042 	1
0.0427 	1
0.0434 	1
0.0441 	1
0.0448 	1
0.0455 	1
0.0462 	1
0.0469 	1
0.0476 	1
0.0483 	1
0.049 	1
0.0497 	1
0.0504 	1
0.0511 	1
0.0518 	1
0.0525 	1
0.0532 	1
0.0539 	1
0.0546 	1
0.0553 	1
0.056 	1
0.0567 	1
0.0574 	1
0.0581 	1
0.0588 	1
0.0595 	1
0.0602 	1
0.0609 	1
0.0616 	1
0.0623 	1
0.063 	1
0.0637 	1
0.0644 	1
0.0651 	1
0.0658 	1
0.0665 	1
0.0672 	1
0.0679 	1
0.0686 	1
0.0693 	1
0.07 	1
0.0707 	1
0.0714 	1
0.0721 	1
0.0728 	1
0.0735 	1
0.0742 	1
0.0749 	1
0.0756 	1
0.0763 	1
0.077 	1
0.0777 	1
0.0784 	1
0.0791 	1
0.0798 	1
0.0805 	1
0.0812 	1
0.0819 	1
0.0826 	1
0.0833 	1
0.084 	1
0.0847 	1
0.0854 	1
0.0861 	1
0.0868 	1
0.0875 	1
0.0882 	1
0.0889 	1
0.0896 	1
0.0903 	1
0.091 	1
0.0917 	1
0.0924 	1
0.0931 	1
0.0938 	1
0.0945 	1
0.0952 	1
0.0959 	1
0.0966 	1
0.0973 	1
0.098 	1
0.0987 	1
0.0994 	1
0.1001 	1
0.1008 	1
0.1015 	1
0.1022 	1
0.1029 	1
0.1036 	1
0.1043 	1
0.105 	1
0.1057 	1
0.1064 	1
0.1071 	1
0.1078 	1
0.1085 	1
0.1092 	1
0.1099 	1
0.1106 	1
0.1113 	1
0.112 	1
0.1127 	1
0.1134 	1
0.1141 	1
0.1148 	1
0.1155 	1
0.1162 	1
0.1169 	1
0.1176 	1
0.1183 	1
0.119 	1
0.1197 	1
0.1204 	1
0.1211 	1
0.1218 	1
0.1225 	1
0.1232 	1
0.1239 	1
0.1246 	1
0.1253 	1
0.126 	1
0.1267 	1
0.1274 	1
0.1281 	1
0.1288 	1
0.1295 	1
0.1302 	1
0.1309 	1
0.1316 	1
0.1323 	1
0.133 	1
0.1337 	1
0.1344 	1
0.1351 	1
0.1358 	1
0.1365 	1
0.1372 	1
0.1379 	1
0.1386 	1
0.1393 	1
0.14 	1
0.1407 	1
0.1414 	1
0.1421 	1
0.1428 	1
0.1435 	1
0.1442 	1
0.1449 	1
0.1456 	1
0.1463 	1
0.147 	1
0.1477 	1
0.1484 	1
0.1491 	1
0.1498 	1
0.1505 	1
0.1512 	1
0.1519 	1
0.1526 	1
0.1533 	1
0.154 	1
0.1547 	1
0.1554 	1
0.1561 	1
0.1568 	1
0.1575 	1
0.1582 	1
0.1589 	1
0.1596 	1
0.1603 	1
0.161 	1
0.1617 	1
0.1624 	1
0.1631 	1
0.1638 	1
0.1645 	1
0.1652 	1
0.1659 	1
0.1666 	1
0.1673 	1
0.168 	1
0.1687 	1
0.1694 	1
0.1701 	1
0.1708 	1
0.1715 	1
0.1722 	1
0.1729 	1
0.1736 	1
0.1743 	1
0.175 	1
0.1757 	1
0.1764 	1
0.1771 	1
0.1778 	1
0.1785 	1
0.1792 	1
0.1799 	1
0.1806 	1
0.1813 	1
0.182 	1
0.1827 	1
0.1834 	1
0.1841 	1
0.1848 	1
0.1855 	1
0.1862 	1
0.1869 	1
0.1876 	1
0.1883 	1
0.189 	1
0.1897 	1
0.1904 	1
0.1911 	1
0.1918 	1
0.1925 	1
0.1932 	1
0.1939 	1
0.1946 	1
0.1953 	1
0.196 	1
0.1967 	1
0.1974 	1
0.1981 	1
0.1988 	1
0.1995 	1
0.2002 	1
0.2009 	1
0.2016 	1
0.2023 	1
0.203 	1
0.2037 	1
0.2044 	1
0.2051 	1
0.2058 	1
0.2065 	1
0.2072 	1
0.2079 	1
0.2086 	1
0.2093 	1
0.21 	1
0.2107 	1
0.2114 	1
0.2121 	1
0.2128 	1
0.2135 	1
0.2142 	1
0.2149 	1
0.2156 	1
0.2163 	1
0.217 	1
0.2177 	1
0.2184 	1
0.2191 	1
0.2198 	1
0.2205 	1
0.2212 	1
0.2219 	1
0.2226 	1
0.2233 	1
0.224 	1
0.2247 	1
0.2254 	1
0.2261 	1
0.2268 	1
0.2275 	1
0.2282 	1
0.2289 	1
0.2296 	1
0.2303 	1
0.231 	1
0.2317 	1
0.2324 	1
0.2331 	1
0.2338 	1
0.2345 	1
0.2352 	1
0.2359 	1
0.2366 	0.999999
0.2373 	0.999997
0.238 	0.999996
0.2387 	0.999995
0.2394 	0.999993
0.2401 	0.999992
0.2408 	0.999993
0.2415 	0.999961
0.2422 	0.999921
0.2429 	0.999881
0.2436 	0.999841
0.2443 	0.9998
0.245 	0.999755
0.2457 	0.999773
0.2464 	0.99924
0.2471 	0.998441
0.2478 	0.997641
0.2485 	0.996842
0.2492 	0.996015
0.2499 	0.995062
0.2506 	0.994929
0.2513 	0.989758
0.252 	0.980018
0.2527 	0.970278
0.2534 	0.960539
0.2541 	0.950679
0.2548 	0.937979
0.2555 	0.930273
0.2562 	0.909504
0.2569 	0.864971
0.2576 	0.820438
0.2583 	0.775904
0.259 	0.731371
0.2597 	0.669581
0.2604 	0.609132
0.2611 	0.551069
0.2618 	0.492733
0.2625 	0.434398
0.2632 	0.376062
0.2639 	0.317726
0.2646 	0.258565
0.2653 	0.195916
0.266 	0.133271
0.2667 	0.108656
0.2674 	0.0840442
0.2681 	0.0594325
0.2688 	0.0348208
0.2695 	0.0239115
0.2702 	0.019478
0.2709 	0.00960381
0.2716 	0.00738733
0.2723 	0.00550455
0.273 	0.00362178
0.2737 	0.001739
0.2744 	0.000755504
0.2751 	0.000722214
0.2758 	0.00031768
0.2765 	0.000200285
0.2772 	0.000148059
0.2779 	9.58331e-05
0.2786 	4.36072e-05
0.2793 	9.88919e-06
0.28 	1.40854e-05
0.2807 	5.41898e-06
0.2814 	2.19052e-06
0.2821 	1.61864e-06
0.2828 	1.04675e-06
0.2835 	4.74864e-07
0.2842 	1.91096e-08
0.2849 	7.3044e-08
0.2856 	3.04067e-08
0.2863 	2.39906e-09
0.287 	1.79536e-09
0.2877 	1.19166e-09
0.2884 	5.87965e-10
0.2891 	1.13573e-11
0.2898 	3.60167e-11
0.2905 	2.54168e-11
0.2912 	1.02553e-11
0.2919 	1.03167e-11
0.2926 	1.03781e-11
0.2933 	1.04396e-11
0.294 	1.0501e-11
0.2947 	1.06533e-11
0.2954 	1.08538e-11
0.2961 	1.10157e-11
0.2968 	1.09668e-11
0.2975 	1.09179e-11
0.2982 	1.08689e-11
0.2989 	1.08199e-11
0.2996 	1.0693e-11
0.3003 	1.05857e-11
0.301 	1.05176e-11
0.3017 	1.02678e-11
0.3024 	1.00179e-11
0.3031 	9.76796e-12
0.3038 	9.51803e-12
0.3045 	9.22507e-12
0.3052 	8.90525e-12
0.3059 	8.58546e-12
0.3066 	8.2158e-12
0.3073 	7.84385e-12
0.308 	7.4719e-12
0.3087 	7.09995e-12
0.3094 	6.70434e-12
0.3101 	6.27145e-12
0.3108 	5.77292e-12
0.3115 	5.37421e-12
0.3122 	4.99885e-12
0.3129 	4.62348e-12
0.3136 	4.24811e-12
0.3143 	3.87812e-12
0.315 	3.519e-12
0.3157 	3.04485e-12
0.3164 	2.70846e-12
0.3171 	2.44061e-12
0.3178 	2.17277e-12
0.3185 	1.90493e-12
0.3192 	1.65006e-12
0.3199 	1.45106e-12
0.3206 	1.17565e-12
0.3213 	9.7109e-13
0.322 	8.42258e-13
0.3227 	7.13426e-13
0.3234 	5.84593e-13
0.3241 	4.58824e-13
0.3248 	3.96449e-13
0.3255 	3.03913e-13
0.3262 	2.24896e-13
0.3269 	1.87312e-13
0.3276 	1.49736e-13
0.3283 	1.12161e-13
0.329 	7.45849e-14
0.3297 	6.32899e-14
0.3304 	4.76964e-14
0.3311 	3.03883e-14
0.3318 	2.45876e-14
0.3325 	1.87906e-14
0.3332 	1.29936e-14
0.3339 	7.19664e-15
0.3346 	5.68891e-15
0.3353 	4.56255e-15
0.336 	2.33899e-15
0.3367 	1.89026e-15
0.3374 	1.44198e-15
0.3381 	9.93694e-16
0.3388 	5.45412e-16
0.3395 	4.08007e-16
0.3402 	3.86689e-16
0.3409 	1.76961e-16
0.3416 	1.42008e-16
0.3423 	1.15827e-16
0.343 	8.96455e-17
0.3437 	6.34643e-17
0.3444 	5.16843e-17
0.3451 	5.2262e-17
0.3458 	3.20471e-17
0.3465 	2.55416e-17
0.3472 	2.22773e-17
0.3479 	1.90129e-17
0.3486 	1.57486e-17
0.3493 	1.33529e-17
0.35 	1.26887e-17
0.3507 	9.17368e-18
0.3514 	7.38974e-18
0.3521 	6.47643e-18
0.3528 	5.56312e-18
0.3535 	4.64981e-18
0.3542 	3.84425e-18
0.3549 	3.49304e-18
0.3556 	2.5368e-18
0.3563 	1.88897e-18
0.357 	1.61545e-18
0.3577 	1.34193e-18
0.3584 	1.06841e-18
0.3591 	8.05585e-19
0.3598 	7.48836e-19
0.3605 	5.2541e-19
0.3612 	3.23839e-19
0.3619 	2.67183e-19
0.3626 	2.10521e-19
0.3633 	1.53859e-19
0.364 	9.71972e-20
0.3647 	9.60798e-20
0.3654 	7.0146e-20
0.3661 	3.13497e-20
0.3668 	2.50286e-20
0.3675 	1.87013e-20
0.3682 	1.23739e-20
0.3689 	6.04649e-21
0.3696 	5.91234e-21
0.3703 	5.19006e-21
0.371 	1.48619e-21
0.3717 	1.1739e-21
0.3724 	8.60669e-22
0.3731 	5.47434e-22
0.3738 	2.34199e-22
0.3745 	1.70722e-22
0.3752 	1.94294e-22
0.3759 	5.634e-23
0.3766 	4.06873e-23
0.3773 	3.15549e-23
0.378 	2.24224e-23
0.3787 	1.329e-23
0.3794 	8.44357e-24
0.3801 	7.90052e-24
0.3808 	5.2982e-24
0.3815 	4.11708e-24
0.3822 	3.27442e-24
0.3829 	2.43175e-24
0.3836 	1.58909e-24
0.3843 	9.62183e-25
0.385 	7.58885e-25
0.3857 	5.79584e-25
0.3864 	4.54187e-25
0.3871 	3.55538e-25
0.3878 	2.56889e-25
0.3885 	1.5824e-25
0.3892 	7.48175e-26
0.3899 	5.42143e-26
0.3906 	3.7969e-26
0.3913 	2.72631e-26
0.392 	2.0937e-26
0.3927 	1.4611e-26
0.3934 	8.28501e-27
0.3941 	2.26903e-27
0.3948 	1.82076e-27
0.3955 	1.18292e-27
0.3962 	6.78034e-28
0.3969 	5.16874e-28
0.3976 	3.55457e-28
0.3983 	1.94041e-28
0.399 	3.26243e-29
0.3997 	2.36826e-29
0.4004 	1.73871e-29
0.4011 	5.1635e-30
0.4018 	3.95689e-30
0.4025 	2.74171e-30
0.4032 	1.52654e-30
0.4039 	3.11364e-31
0.4046 	1.18149e-31
0.4053 	1.27982e-31
0.406 	8.50764e-33
0.4067 	6.58876e-33
0.4074 	4.6384e-33
0.4081 	2.68805e-33
0.4088 	7.37689e-34
0.4095 	1.77286e-34
0.4102 	2.92346e-34
0.4109 	1.73556e-35
0.4116 	1.92151e-36
0.4123 	1.42442e-36
0.413 	9.27315e-37
0.4137 	4.30216e-37
0.4144 	2.68746e-37
0.4151 	4.07415e-37
0.4158 	1.94458e-37
0.4165 	1.49168e-37
0.4172 	1.45182e-37
0.4179 	1.41195e-37
0.4186 	1.37209e-37
0.4193 	1.61264e-37
0.42 	2.39506e-37
0.4207 	1.50359e-37
0.4214 	1.17468e-37
0.4221 	1.13668e-37
0.4228 	1.09868e-37
0.4235 	1.06068e-37
0.4242 	1.1545e-37
0.4249 	1.77999e-37
0.4256 	1.21536e-37
0.4263 	8.24614e-38
0.427 	7.83259e-38
0.4277 	7.41904e-38
0.4284 	7.00549e-38
0.4291 	6.8715e-38
0.4298 	1.14205e-37
0.4305 	8.46822e-38
0.4312 	4.60548e-38
0.4319 	4.26544e-38
0.4326 	3.92502e-38
0.4333 	3.58461e-38
0.434 	3.24419e-38
0.4347 	5.66853e-38
0.4354 	4.72678e-38
0.4361 	1.85945e-38
0.4368 	1.66842e-38
0.4375 	1.47676e-38
0.4382 	1.28511e-38
0.4389 	1.09346e-38
0.4396 	1.93624e-38
0.4403 	1.92153e-38
0.441 	4.83302e-39
0.4417 	4.16542e-39
0.4424 	3.49399e-39
0.4431 	2.82257e-39
0.4438 	2.15114e-39
0.4445 	3.82601e-39
0.4452 	4.87979e-39
0.4459 	9.25863e-40
0.4466 	5.79885e-40
0.4473 	4.55288e-40
0.448 	3.30691e-40
0.4487 	2.06093e-40
0.4494 	3.31412e-40
0.4501 	5.98615e-40
0.4508 	1.37489e-40
0.4515 	3.72221e-41
0.4522 	2.78637e-41
0.4529 	1.85053e-41
0.4536 	9.14689e-42
0.4543 	8.47002e-42
0.455 	2.43012e-41
0.4557 	6.8952e-42
0.4564 	7.66043e-43
0.4571 	5.67598e-43
0.4578 	3.69153e-43
0.4585 	1.70708e-43
0.4592 	3.96711e-44
0.4599 	1.74416e-43
0.4606 	7.259e-44
0.4613 	3.22662e-45
0.462 	2.40949e-45
0.4627 	1.59236e-45
0.4634 	7.75228e-46
0.4641 	1.7072e-47
0.4648 	1.83324e-46
0.4655 	1.09419e-46
0.4662 	1.90747e-48
0.4669 	1.442e-48
0.4676 	9.74337e-49
0.4683 	5.06674e-49
0.469 	3.90117e-50
0.4697 	2.07883e-50
0.4704 	1.74826e-50
0.4711 	1.35806e-52
0.4718 	1.04056e-52
0.4725 	7.17972e-53
0.4732 	3.95388e-53
0.4739 	7.28033e-54
0.4746 	9.65259e-55
0.4753 	1.13031e-54
0.476 	8.98364e-57
0.4767 	6.96794e-57
0.4774 	4.8991e-57
0.4781 	2.83025e-57
0.4788 	7.61399e-58
0.4795 	4.45647e-59
0.4802 	7.30788e-59
0.4809 	4.79769e-60
0.4816 	4.64598e-61
0.4823 	3.32247e-61
0.483 	1.99897e-61
0.4837 	6.7547e-62
0.4844 	2.02716e-63
0.4851 	4.78417e-63
0.4858 	8.4478e-64
0.4865 	3.05633e-65
0.4872 	2.22031e-65
0.4879 	1.3843e-65
0.4886 	5.48283e-66
0.4893 	1.48416e-67
0.49 	4.76803e-67
0.4907 	1.42893e-67
0.4914 	2.6006e-68
0.4921 	2.52372e-68
0.4928 	2.44683e-68
0.4935 	2.36995e-68
0.4942 	4.41638e-68
0.4949 	1.46522e-67
0.4956 	7.29412e-68
0.4963 	2.22086e-68
0.497 	2.20497e-68
0.4977 	2.18909e-68
0.4984 	2.1732e-68
0.4991 	2.82595e-68
0.4998 	1.33337e-67
0.5005 	8.78177e-68
0.5012 	2.04952e-68
0.5019 	2.02351e-68
0.5026 	1.99866e-68
0.5033 	1.9738e-68
0.504 	1.94895e-68
0.5047 	1.15574e-67
0.5054 	9.99497e-68
0.5061 	1.76039e-68
0.5068 	1.7148e-68
0.5075 	1.67454e-68
0.5082 	1.63428e-68
0.5089 	1.59402e-68
0.5096 	9.10769e-68
0.5103 	1.04054e-67
0.511 	1.31825e-68
0.5117 	1.25608e-68
0.5124 	1.20483e-68
0.5131 	1.15358e-68
0.5138 	1.10233e-68
0.5145 	6.09663e-68
0.5152 	9.41084e-68
0.5159 	1.31958e-68
0.5166 	7.34578e-69
0.5173 	6.86578e-69
0.518 	6.38578e-69
0.5187 	5.90578e-69
0.5194 	3.1777e-68
0.5201 	6.92917e-68
0.5208 	1.47702e-68
0.5215 	3.07271e-69
0.5222 	2.76636e-69
0.5229 	2.46001e-69
0.5236 	2.15366e-69
0.5243 	1.13435e-68
0.525 	3.80374e-68
0.5257 	1.05729e-68
0.5264 	7.9648e-70
0.5271 	6.79091e-70
0.5278 	5.61701e-70
0.5285 	4.44311e-70
0.5292 	2.20642e-69
0.5299 	1.10677e-68
0.5306 	4.59816e-69
0.5313 	1.09936e-70
0.532 	8.79035e-71
0.5327 	6.58708e-71
0.5334 	4.3838e-71
0.5341 	1.27947e-70
0.5348 	1.6914e-69
0.5355 	1.01319e-69
0.5362 	6.47147e-72
0.5369 	4.88729e-72
0.5376 	3.40938e-72
0.5383 	1.93147e-72
0.539 	4.53557e-73
0.5397 	9.75775e-71
0.5404 	8.24549e-71
0.5411 	6.34228e-74
0.5418 	1.70985e-74
0.5425 	-7.60603e-75
0.5432 	-3.23105e-74
0.5439 	-5.7015e-74
0.5446 	1.22369e-72
0.5453 	1.45561e-72
0.546 	-8.41362e-74
0.5467 	-1.43992e-73
0.5474 	-1.47533e-73
0.5481 	-1.51073e-73
0.5488 	-1.54613e-73
0.5495 	-3.36782e-73
0.5502 	-4.6152e-73
0.5509 	-1.91234e-73
0.5516 	-2.89002e-73
0.5523 	-2.94988e-73
0.553 	-3.00975e-73
0.5537 	-3.06961e-73
0.5544 	-5.82666e-73
0.5551 	-9.7722e-73
0.5558 	-4.49458e-73
0.5565 	-5.20433e-73
0.5572 	-5.3011e-73
0.5579 	-5.39787e-73
0.5586 	-5.49463e-73
0.5593 	-8.98062e-73
0.56 	-1.86254e-72
0.5607 	-9.31036e-73
0.5614 	-8.72435e-73
0.5621 	-8.87285e-73
0.5628 	-9.02135e-73
0.5635 	-9.16985e-73
0.5642 	-1.26637e-72
0.5649 	-2.85509e-72
0.5656 	-1.76319e-72
0.5663 	-1.37574e-72
0.567 	-1.39705e-72
0.5677 	-1.41837e-72
0.5684 	-1.43969e-72
0.5691 	-1.63247e-72
0.5698 	-4.09833e-72
0.5705 	-3.0921e-72
0.5712 	-1.96571e-72
0.5719 	-2.07393e-72
0.5726 	-2.10233e-72
0.5733 	-2.13073e-72
0.574 	-2.15913e-72
0.5747 	-5.50922e-72
0.5754 	-5.04658e-72
0.5761 	-2.58143e-72
0.5768 	-2.90306e-72
0.5775 	-2.9379e-72
0.5782 	-2.97274e-72
0.5789 	-3.00758e-72
0.5796 	-6.92357e-72
0.5803 	-7.68219e-72
0.581 	-3.27214e-72
0.5817 	-3.83101e-72
0.5824 	-3.86998e-72
0.5831 	-3.90895e-72
0.5838 	-3.94792e-72
0.5845 	-8.11765e-72
0.5852 	-1.09227e-71
0.5859 	-4.57895e-72
0.5866 	-4.76684e-72
0.5873 	-4.80599e-72
0.588 	-4.84515e-72
0.5887 	-4.8843e-72
0.5894 	-8.86136e-72
0.5901 	-1.45269e-71
0.5908 	-6.73565e-72
0.5915 	-5.59642e-72
0.5922 	-5.63079e-72
0.5929 	-5.66517e-72
0.5936 	-5.69954e-72
0.5943 	-8.98609e-72
0.595 	-1.81053e-71
0.5957 	-9.08374e-72
0.5964 	-6.20703e-72
0.5971 	-6.23175e-72
0.5978 	-6.25647e-72
0.5985 	-6.28119e-72
0.5992 	-8.43987e-72
0.5999 	-1.83657e-71
0.6006 	-1.13307e-71
0.6013 	-6.51427e-72
0.602 	-6.52574e-72
0.6027 	-6.53722e-72
0.6034 	-6.5487e-72
0.6041 	-7.30591e-72
0.6048 	-1.75229e-71
0.6055 	-1.31594e-71
0.6062 	-6.49921e-72
0.6069 	-6.47864e-72
0.6076 	-6.47545e-72
0.6083 	-6.47226e-72
0.609 	-6.46907e-72
0.6097 	-1.57443e-71
0.6104 	-1.43072e-71
0.6111 	-6.28081e-72
0.6118 	-6.11084e-72
0.6125 	-6.09399e-72
0.6132 	-6.07713e-72
0.6139 	-6.06027e-72
0.6146 	-1.33365e-71
0.6153 	-1.46294e-71
0.616 	-5.89566e-72
0.6167 	-5.48845e-72
0.6174 	-5.46091e-72
0.6181 	-5.43337e-72
0.6188 	-5.40583e-72
0.6195 	-1.06588e-71
0.6202 	-1.41263e-71
0.6209 	-5.88469e-72
0.6216 	-4.70437e-72
0.6223 	-4.67028e-72
0.623 	-4.63619e-72
0.6237 	-4.6021e-72
0.6244 	-8.03981e-72
0.6251 	-1.29288e-71
0.6258 	-5.95732e-72
0.6265 	-3.85666e-72
0.6272 	-3.82031e-72
0.6279 	-3.78396e-72
0.6286 	-3.7476e-72
0.6293 	-5.71997e-72
0.63 	-1.12529e-71
0.6307 	-5.61163e-72
0.6314 	-3.03044e-72
0.6321 	-2.99546e-72
0.6328 	-2.96049e-72
0.6335 	-2.92551e-72
0.6342 	-3.83098e-72
0.6349 	-8.1065e-72
0.6356 	-4.96602e-72
0.6363 	-2.28701e-72
0.637 	-2.25596e-72
0.6377 	-2.2249e-72
0.6384 	-2.19384e-72
0.6391 	-2.40534e-72
0.6398 	-5.58011e-72
0.6405 	-4.15718e-72
0.6412 	-1.72418e-72
0.6419 	-1.63508e-72
0.6426 	-1.60928e-72
0.6433 	-1.58349e-72
0.644 	-1.55769e-72
0.6447 	-3.67402e-72
0.6454 	-3.30935e-72
0.6461 	-1.31058e-72
0.6468 	-1.14257e-72
0.6475 	-1.12235e-72
0.6482 	-1.10213e-72
0.6489 	-1.0819e-72
0.6496 	-2.31531e-72
0.6503 	-2.51571e-72
0.651 	-9.68676e-73
0.6517 	-7.71084e-73
0.6524 	-7.56028e-73
0.6531 	-7.40971e-73
0.6538 	-7.25914e-73
0.6545 	-1.39672e-72
0.6552 	-1.83253e-72
0.6559 	-7.49718e-73
0.6566 	-5.03361e-73
0.6573 	-4.92661e-73
0.658 	-4.81962e-73
0.6587 	-4.71263e-73
0.6594 	-8.0613e-73
0.6601 	-1.28284e-72
0.6608 	-5.82368e-73
0.6615 	-3.18309e-73
0.6622 	-3.11024e-73
0.6629 	-3.03739e-73
0.6636 	-2.96454e-73
0.6643 	-4.44491e-73
0.665 	-8.65174e-73
0.6657 	-4.26063e-73
0.6664 	-1.95249e-73
0.6671 	-1.90482e-73
0.6678 	-1.85714e-73
0.6685 	-1.80947e-73
0.6692 	-2.33469e-73
0.6699 	-4.88714e-73
0.6706 	-2.96237e-73
0.6713 	-1.16313e-73
0.672 	-1.13306e-73
0.6727 	-1.10299e-73
0.6734 	-1.07292e-73
0.6741 	-1.16214e-73
0.6748 	-2.66695e-73
0.6755 	-1.96952e-73
0.6762 	-7.18449e-74
0.6769 	-6.55347e-74
0.6776 	-6.37026e-74
0.6783 	-6.18706e-74
0.679 	-6.00385e-74
0.6797 	-1.40612e-73
0.6804 	-1.25765e-73
0.6811 	-4.59468e-74
0.6818 	-3.68916e-74
0.6825 	-3.58114e-74
0.6832 	-3.47311e-74
0.6839 	-3.36508e-74
0.6846 	-7.16046e-74
0.6853 	-7.73903e-74
0.686 	-2.85057e-74
0.6867 	-2.02299e-74
0.6874 	-1.96124e-74
0.6881 	-1.89948e-74
0.6888 	-1.83773e-74
0.6895 	-3.51897e-74
0.6902 	-4.60104e-74
0.6909 	-1.83593e-74
0.6916 	-1.08136e-74
0.6923 	-1.04709e-74
0.693 	-1.01281e-74
0.6937 	-9.78537e-75
0.6944 	-1.6664e-74
0.6951 	-2.64806e-74
0.6958 	-1.17909e-74
0.6965 	-6.64934e-75
0.6972 	-6.52845e-75
0.6979 	-6.40756e-75
0.6986 	-6.28666e-75
0.6993 	-9.78159e-75
0.7 	-1.95889e-74
