0 	1
0.0007 	1
0.0014 	1
0.0021 	1
0.0028 	1
0.0035 	1
0.0042 	1
0.0049 	1
0.0056 	1
0.0063 	1
0.007 	1
0.0077 	1
0.0084 	1
0.0091 	1
0.0098 	1
0.0105 	1
0.0112 	1
0.0119 	1
0.0126 	1
0.0133 	1
0.014 	1
0.0147 	1
0.0154 	1
0.0161 	1
0.0168 	1
0.0175 	1
0.0182 	1
0.0189 	1
0.0196 	1
0.0203 	1
0.021 	1
0.0217 	1
0.0224 	1
0.0231 	1
0.0238 	1
0.0245 	1
0.0252 	1
0.0259 	1
0.0266 	1
0.0273 	1
0.028 	1
0.0287 	1
0.0294 	1
0.0301 	1
0.0308 	1
0.0315 	1
0.0322 	1
0.0329 	1
0.0336 	1
0.0343 	1
0.035 	1
0.0357 	1
0.0364 	1
0.0371 	1
0.0378 	1
0.0385 	1
0.0392 	1
0.0399 	1
0.0406 	1
0.0413 	1
0.042 	1
0.0427 	1
0.0434 	1
0.0441 	1
0.0448 	1
0.0455 	1
0.0462 	1
0.0469 	1
0.0476 	1
0.0483 	1
0.049 	1
0.0497 	1
0.0504 	1
0.0511 	1
0.0518 	1
0.0525 	1
0.0532 	1
0.0539 	1
0.0546 	1
0.0553 	1
0.056 	1
0.0567 	1
0.0574 	1
0.0581 	1
0.0588 	1
0.0595 	1
0.0602 	1
0.0609 	1
0.0616 	1
0.0623 	1
0.063 	1
0.0637 	1
0.0644 	1
0.0651 	1
0.0658 	1
0.0665 	1
0.0672 	1
0.0679 	1
0.0686 	1
0.0693 	1
0.07 	1
0.0707 	1
0.0714 	1
0.0721 	1
0.0728 	1
0.0735 	1
0.0742 	1
0.0749 	1
0.0756 	1
0.0763 	1
0.077 	1
0.0777 	1
0.0784 	1
0.0791 	1
0.0798 	1
0.0805 	1
0.0812 	1
0.0819 	1
0.0826 	1
0.0833 	1
0.084 	1
0.0847 	1
0.0854 	1
0.0861 	1
0.0868 	1
0.0875 	1
0.0882 	1
0.0889 	1
0.0896 	1
0.0903 	1
0.091 	1
0.0917 	1
0.0924 	1
0.0931 	1
0.0938 	1
0.0945 	1
0.0952 	1
0.0959 	1
0.0966 	1
0.0973 	1
0.098 	1
0.0987 	1
0.0994 	1
0.1001 	1
0.1008 	1
0.1015 	1
0.1022 	1
0.1029 	1
0.1036 	1
0.1043 	1
0.105 	1
0.1057 	1
0.1064 	1
0.1071 	1
0.1078 	1
0.1085 	1
0.1092 	1
0.1099 	1
0.1106 	1
0.1113 	1
0.112 	1
0.1127 	1
0.1134 	1
0.1141 	1
0.1148 	1
0.1155 	1
0.1162 	1
0.1169 	1
0.1176 	1
0.1183 	1
0.119 	1
0.1197 	1
0.1204 	1
0.1211 	1
0.1218 	1
0.1225 	1
0.1232 	1
0.1239 	1
0.1246 	1
0.1253 	1
0.126 	1
0.1267 	1
0.1274 	1
0.1281 	1
0.1288 	1
0.1295 	1
0.1302 	1
0.1309 	1
0.1316 	1
0.1323 	1
0.133 	1
0.1337 	1
0.1344 	1
0.1351 	1
0.1358 	1
0.1365 	1
0.1372 	1
0.1379 	1
0.1386 	1
0.1393 	1
0.14 	1
0.1407 	1
0.1414 	1
0.1421 	1
0.1428 	1
0.1435 	1
0.1442 	1
0.1449 	1
0.1456 	1
0.1463 	1
0.147 	1
0.1477 	1
0.1484 	1
0.1491 	1
0.1498 	1
0.1505 	1
0.1512 	1
0.1519 	1
0.1526 	1
0.1533 	1
0.154 	1
0.1547 	1
0.1554 	1
0.1561 	1
0.1568 	1
0.1575 	1
0.1582 	1
0.1589 	1
0.1596 	1
0.1603 	1
0.161 	1
0.1617 	1
0.1624 	1
0.1631 	1
0.1638 	1
0.1645 	1
0.1652 	1
0.1659 	1
0.1666 	1
0.1673 	1
0.168 	1
0.1687 	1
0.1694 	1
0.1701 	1
0.1708 	1
0.1715 	1
0.1722 	1
0.1729 	1
0.1736 	1
0.1743 	1
0.175 	1
0.1757 	1
0.1764 	1
0.1771 	1
0.1778 	1
0.1785 	1
0.1792 	1
0.1799 	1
0.1806 	1
0.1813 	1
0.182 	1
0.1827 	1
0.1834 	1
0.1841 	1
0.1848 	1
0.1855 	1
0.1862 	1
0.1869 	1
0.1876 	1
0.1883 	1
0.189 	1
0.1897 	1
0.1904 	1
0.1911 	1
0.1918 	1
0.1925 	1
0.1932 	1
0.1939 	1
0.1946 	1
0.1953 	1
0.196 	1
0.1967 	1
0.1974 	1
0.1981 	1
0.1988 	1
0.1995 	1
0.2002 	1
0.2009 	1
0.2016 	1
0.2023 	1
0.203 	1
0.2037 	1
0.2044 	1
0.2051 	1
0.2058 	1
0.2065 	1
0.2072 	1
0.2079 	1
0.2086 	1
0.2093 	1
0.21 	1
0.2107 	1
0.2114 	1
0.2121 	1
0.2128 	1
0.2135 	1
0.2142 	1
0.2149 	1
0.2156 	1
0.2163 	1
0.217 	1
0.2177 	1
0.2184 	1
0.2191 	1
0.2198 	1
0.2205 	1
0.2212 	1
0.2219 	1
0.2226 	1
0.2233 	1
0.224 	1
0.2247 	1
0.2254 	1
0.2261 	1
0.2268 	1
0.2275 	1
0.2282 	1
0.2289 	1
0.2296 	1
0.2303 	1
0.231 	1
0.2317 	1
0.2324 	1
0.2331 	1
0.2338 	1
0.2345 	1
0.2352 	1
0.2359 	1
0.2366 	0.999992
0.2373 	0.999979
0.238 	0.999966
0.2387 	0.999954
0.2394 	0.999904
0.2401 	0.999849
0.2408 	0.999829
0.2415 	0.999232
0.2422 	0.998076
0.2429 	0.99692
0.2436 	0.995764
0.2443 	0.992875
0.245 	0.988992
0.2457 	0.98633
0.2464 	0.978122
0.2471 	0.960255
0.2478 	0.942389
0.2485 	0.924522
0.2492 	0.894107
0.2499 	0.850738
0.2506 	0.810613
0.2513 	0.766839
0.252 	0.708429
0.2527 	0.650019
0.2534 	0.59161
0.2541 	0.525217
0.2548 	0.443914
0.2555 	0.361763
0.2562 	0.281741
0.2569 	0.230008
0.2576 	0.178276
0.2583 	0.126543
0.259 	0.0831986
0.2597 	0.0723375
0.2604 	0.0592107
0.2611 	0.0443846
0.2618 	0.033696
0.2625 	0.0232811
0.2632 	0.0128662
0.2639 	0.00307302
0.2646 	0.00272172
0.2653 	0.00229136
0.266 	0.00175558
0.2667 	0.00133998
0.2674 	0.000955217
0.2681 	0.000570458
0.2688 	0.000185699
0.2695 	0.00013693
0.2702 	0.000115865
0.2709 	8.93508e-05
0.2716 	6.7944e-05
0.2723 	4.92452e-05
0.273 	3.05465e-05
0.2737 	1.18478e-05
0.2744 	6.91128e-06
0.2751 	5.91514e-06
0.2758 	4.56651e-06
0.2765 	3.42214e-06
0.2772 	2.47302e-06
0.2779 	1.52391e-06
0.2786 	5.74797e-07
0.2793 	2.07591e-07
0.28 	1.80162e-07
0.2807 	1.39058e-07
0.2814 	1.02463e-07
0.2821 	7.35862e-08
0.2828 	4.47093e-08
0.2835 	1.58324e-08
0.2842 	9.8388e-10
0.2849 	8.62552e-10
0.2856 	6.80096e-10
0.2863 	5.00116e-10
0.287 	3.63479e-10
0.2877 	2.26842e-10
0.2884 	9.02053e-11
0.2891 	5.94047e-13
0.2898 	5.27503e-13
0.2905 	4.26335e-13
0.2912 	3.14033e-13
0.2919 	2.31385e-13
0.2926 	1.48755e-13
0.2933 	6.61256e-14
0.294 	8.5937e-17
0.2947 	7.47931e-17
0.2954 	6.06817e-17
0.2961 	4.43447e-17
0.2968 	3.28833e-17
0.2975 	2.17253e-17
0.2982 	1.05673e-17
0.2989 	4.78806e-20
0.2996 	4.15254e-20
0.3003 	3.40772e-20
0.301 	2.51717e-20
0.3017 	1.85761e-20
0.3024 	1.25586e-20
0.3031 	6.5411e-21
0.3038 	5.23617e-22
0.3045 	3.85888e-24
0.3052 	3.2446e-24
0.3059 	2.43933e-24
0.3066 	1.79779e-24
0.3073 	1.24127e-24
0.308 	6.84751e-25
0.3087 	1.2823e-25
0.3094 	2.80302e-28
0.3101 	2.40917e-28
0.3108 	1.83814e-28
0.3115 	1.35475e-28
0.3122 	9.53223e-29
0.3129 	5.51692e-29
0.3136 	1.5016e-29
0.3143 	1.99017e-32
0.315 	1.74868e-32
0.3157 	1.35195e-32
0.3164 	9.97769e-33
0.3171 	7.14113e-33
0.3178 	4.30457e-33
0.3185 	1.46801e-33
0.3192 	1.36953e-36
0.3199 	1.21389e-36
0.3206 	9.62177e-37
0.3213 	7.11749e-37
0.322 	5.17341e-37
0.3227 	3.22932e-37
0.3234 	1.28524e-37
0.3241 	9.01753e-41
0.3248 	8.05296e-41
0.3255 	6.54054e-41
0.3262 	4.8514e-41
0.3269 	3.57721e-41
0.3276 	2.30177e-41
0.3283 	1.02632e-41
0.329 	5.62463e-45
0.3297 	5.05501e-45
0.3304 	4.20369e-45
0.3311 	3.14108e-45
0.3318 	2.33658e-45
0.3325 	1.54406e-45
0.3332 	7.51529e-46
0.3339 	3.29876e-49
0.3346 	2.98035e-49
0.3353 	2.53531e-49
0.336 	1.92145e-49
0.3367 	1.43084e-49
0.3374 	9.68067e-50
0.3381 	5.05291e-50
0.3388 	4.2514e-51
0.3395 	1.64751e-53
0.3402 	1.43221e-53
0.3409 	1.09916e-53
0.3416 	8.19932e-54
0.3423 	5.66513e-54
0.343 	3.13094e-54
0.3437 	5.96746e-55
0.3444 	8.5462e-58
0.3451 	7.58626e-58
0.3458 	5.88822e-58
0.3465 	4.40208e-58
0.3472 	3.09934e-58
0.3479 	1.79661e-58
0.3486 	4.93868e-59
0.3493 	4.16928e-62
0.35 	3.77676e-62
0.3507 	2.96151e-62
0.3514 	2.2196e-62
0.3521 	1.58952e-62
0.3528 	9.59442e-63
0.3535 	3.29363e-63
0.3542 	1.91941e-66
0.3549 	1.74557e-66
0.3556 	1.40378e-66
0.3563 	1.05499e-66
0.357 	7.67243e-67
0.3577 	4.79496e-67
0.3584 	1.91748e-67
0.3591 	8.36927e-71
0.3598 	7.64029e-71
0.3605 	6.29604e-71
0.3612 	4.7425e-71
0.3619 	3.50001e-71
0.3626 	2.25447e-71
0.3633 	1.00893e-71
0.364 	3.46914e-75
0.3647 	3.17875e-75
0.3654 	2.68233e-75
0.3661 	2.03138e-75
0.3668 	1.51503e-75
0.3675 	1.00211e-75
0.3682 	4.89176e-76
0.3689 	1.3722e-79
0.3696 	1.26184e-79
0.3703 	1.08971e-79
0.371 	8.35224e-80
0.3717 	6.24785e-80
0.3724 	4.23067e-80
0.3731 	2.2135e-80
0.3738 	1.96322e-81
0.3745 	-1.24005e-85
0.3752 	-2.65103e-84
0.3759 	9.86269e-85
0.3766 	1.95006e-84
0.3773 	1.18954e-84
0.378 	4.29011e-85
0.3787 	-3.31514e-85
0.3794 	-2.81662e-84
0.3801 	-4.98241e-84
0.3808 	-1.95037e-84
0.3815 	-1.94715e-85
0.3822 	-1.94644e-85
0.3829 	-1.94573e-85
0.3836 	-1.94502e-85
0.3843 	-8.96159e-85
0.385 	-2.03617e-84
0.3857 	-8.96154e-85
0.3864 	-5.29574e-86
0.3871 	-5.29029e-86
0.3878 	-5.28485e-86
0.3885 	-5.2794e-86
0.3892 	-1.98067e-85
0.3899 	-5.06038e-85
0.3906 	-2.86058e-85
0.3913 	-1.17712e-86
0.392 	-1.17606e-86
0.3927 	-1.175e-86
0.3934 	-1.17394e-86
0.3941 	-3.40985e-86
0.3948 	-1.02268e-85
0.3955 	-7.30526e-86
0.3962 	-6.19198e-87
0.3969 	-2.24831e-87
0.3976 	-2.2468e-87
0.3983 	-2.24529e-87
0.399 	-4.63706e-87
0.3997 	-1.76157e-86
0.4004 	-1.57616e-86
0.4011 	-2.78298e-87
0.4018 	-3.79748e-88
0.4025 	-3.79583e-88
0.4032 	-3.79419e-88
0.4039 	-4.68032e-88
0.4046 	-2.65116e-87
0.4053 	-2.96303e-87
0.406 	-7.7991e-88
0.4067 	-5.73316e-89
0.4074 	-5.73191e-89
0.4081 	-5.73066e-89
0.4088 	-5.72941e-89
0.4095 	-3.51678e-88
0.4102 	-4.9234e-88
0.4109 	-1.64129e-88
0.4116 	-7.85774e-90
0.4123 	-7.85753e-90
0.413 	-7.85732e-90
0.4137 	-7.8571e-90
0.4144 	-4.15951e-89
0.4151 	-7.35896e-89
0.4158 	-2.87974e-89
0.4165 	-9.93836e-91
0.4172 	-9.93968e-91
0.4179 	-9.941e-91
0.4186 	-9.94232e-91
0.4193 	-4.43214e-90
0.42 	-1.00728e-89
0.4207 	-4.43215e-90
0.4214 	-1.15846e-91
0.4221 	-1.15876e-91
0.4228 	-1.15906e-91
0.4235 	-1.15936e-91
0.4242 	-4.20816e-91
0.4249 	-1.07539e-90
0.4256 	-6.0784e-91
0.4263 	-1.24305e-92
0.427 	-1.2435e-92
0.4277 	-1.24395e-92
0.4284 	-1.24439e-92
0.4291 	-3.49615e-92
0.4298 	-1.04882e-91
0.4305 	-7.49164e-92
0.4312 	-5.73592e-93
0.4319 	-1.23621e-93
0.4326 	-1.23675e-93
0.4333 	-1.23729e-93
0.434 	-2.47106e-93
0.4347 	-9.38983e-93
0.4354 	-8.40144e-93
0.4361 	-1.48269e-93
0.4368 	-1.14769e-94
0.4375 	-1.14827e-94
0.4382 	-1.14885e-94
0.4389 	-1.37003e-94
0.4396 	-7.76333e-94
0.4403 	-8.67667e-94
0.441 	-2.28338e-94
0.4417 	-1.00503e-95
0.4424 	-1.00559e-95
0.4431 	-1.00614e-95
0.4438 	-1.0067e-95
0.4445 	-5.97032e-95
0.4452 	-8.35844e-95
0.4459 	-2.78618e-95
0.4466 	-8.32525e-97
0.4473 	-8.3302e-97
0.448 	-8.33514e-97
0.4487 	-8.34009e-97
0.4494 	-4.26592e-96
0.4501 	-7.5474e-96
0.4508 	-2.95335e-96
0.4515 	-6.49857e-98
0.4522 	-6.5026e-98
0.4529 	-6.50664e-98
0.4536 	-6.51067e-98
0.4543 	-2.80425e-97
0.455 	-6.37329e-97
0.4557 	-2.80425e-97
0.4564 	-4.76843e-99
0.4571 	-4.77149e-99
0.4578 	-4.77456e-99
0.4585 	-4.77763e-99
0.4592 	-1.67555e-98
0.4599 	-4.28196e-98
0.4606 	-2.42024e-98
0.4613 	-3.29419e-100
0.462 	-3.29635e-100
0.4627 	-3.29852e-100
0.4634 	-3.30068e-100
0.4641 	-8.9601e-100
0.4648 	-2.68803e-99
0.4655 	-1.92003e-99
0.4662 	-1.41193e-100
0.4669 	-2.1519e-101
0.4676 	-2.15333e-101
0.4683 	-2.15476e-101
0.469 	-4.15809e-101
0.4697 	-1.58008e-100
0.4704 	-1.41375e-100
0.4711 	-2.49488e-101
0.4718 	-1.334e-102
0.4725 	-1.3349e-102
0.4732 	-1.33579e-102
0.4739 	-1.53922e-102
0.4746 	-8.72229e-102
0.4753 	-9.74845e-102
0.476 	-2.56539e-102
0.4767 	-7.88454e-104
0.4774 	-7.88981e-104
0.4781 	-7.89508e-104
0.4788 	-7.90035e-104
0.4795 	-4.52705e-103
0.4802 	-6.33788e-103
0.4809 	-2.11263e-103
0.4816 	-4.44992e-105
0.4823 	-4.45289e-105
0.483 	-4.45585e-105
0.4837 	-4.45881e-105
0.4844 	-2.20379e-104
0.4851 	-3.89902e-104
0.4858 	-1.52571e-104
0.4865 	-2.39805e-106
0.4872 	-2.39963e-106
0.4879 	-2.40122e-106
0.4886 	-2.40281e-106
0.4893 	-1.00013e-105
0.49 	-2.27303e-105
0.4907 	-1.00013e-105
0.4914 	-1.23178e-107
0.4921 	-1.23259e-107
0.4928 	-1.2334e-107
0.4935 	-1.23421e-107
0.4942 	-4.1833e-107
0.4949 	-1.06907e-106
0.4956 	-6.04256e-107
0.4963 	-6.02156e-109
0.497 	-6.0255e-109
0.4977 	-6.02943e-109
0.4984 	-6.03337e-109
0.4991 	-1.58306e-108
0.4998 	-4.74918e-108
0.5005 	-3.39228e-108
0.5012 	-2.43693e-109
0.5019 	-2.80232e-110
0.5026 	-2.80414e-110
0.5033 	-2.80596e-110
0.504 	-5.23418e-110
0.5047 	-1.98899e-109
0.5054 	-1.77963e-109
0.5061 	-3.14055e-110
0.5068 	-1.24064e-111
0.5075 	-1.24144e-111
0.5082 	-1.24224e-111
0.5089 	-1.38385e-111
0.5096 	-7.84187e-111
0.5103 	-8.76445e-111
0.511 	-2.30644e-111
0.5117 	-5.2353e-113
0.5124 	-5.23864e-113
0.5131 	-5.24197e-113
0.5138 	-5.2453e-113
0.5145 	-2.90621e-112
0.5152 	-4.0687e-112
0.5159 	-1.35624e-112
0.5166 	-2.10938e-114
0.5173 	-2.11071e-114
0.518 	-2.11204e-114
0.5187 	-2.11337e-114
0.5194 	-1.01012e-113
0.5201 	-1.78713e-113
0.5208 	-6.99314e-114
0.5215 	-8.13769e-116
0.5222 	-8.14277e-116
0.5229 	-8.14785e-116
0.5236 	-8.15293e-116
0.5243 	-3.28214e-115
0.525 	-7.45941e-115
0.5257 	-3.28215e-115
0.5264 	-3.00612e-117
0.5271 	-3.00798e-117
0.5278 	-3.00983e-117
0.5285 	-3.01169e-117
0.5292 	-9.8744e-117
0.5299 	-2.52346e-116
0.5306 	-1.42631e-116
0.5313 	-1.0645e-118
0.532 	-1.06515e-118
0.5327 	-1.0658e-118
0.5334 	-1.06645e-118
0.5341 	-2.70717e-118
0.5348 	-8.12151e-118
0.5355 	-5.80108e-118
0.5362 	-4.09836e-119
0.5369 	-3.61944e-120
0.5376 	-3.62162e-120
0.5383 	-3.62381e-120
0.539 	-6.54095e-120
0.5397 	-2.48557e-119
0.5404 	-2.22393e-119
0.5411 	-3.92462e-120
0.5418 	-1.1817e-121
0.5425 	-1.18241e-121
0.5432 	-1.18312e-121
0.5439 	-1.27554e-121
0.5446 	-7.22809e-121
0.5453 	-8.07845e-121
0.546 	-2.12592e-121
0.5467 	-3.71279e-123
0.5474 	-3.71499e-123
0.5481 	-3.71719e-123
0.5488 	-3.71938e-123
0.5495 	-1.99483e-122
0.5502 	-2.79277e-122
0.5509 	-9.30925e-123
0.5516 	-1.12514e-124
0.5523 	-1.1258e-124
0.553 	-1.12646e-124
0.5537 	-1.12712e-124
0.5544 	-5.21586e-124
0.5551 	-9.22807e-124
0.5558 	-3.61099e-124
0.5565 	-3.29747e-126
0.5572 	-3.29937e-126
0.5579 	-3.30128e-126
0.5586 	-3.30318e-126
0.5593 	-1.28772e-125
0.56 	-2.92665e-125
0.5607 	-1.28773e-125
0.5614 	-9.35193e-128
0.5621 	-9.35726e-128
0.5628 	-9.36259e-128
0.5635 	-9.36791e-128
0.5642 	-2.97496e-127
0.5649 	-7.60268e-127
0.5656 	-4.29717e-127
0.5663 	-2.57092e-129
0.567 	-2.57236e-129
0.5677 	-2.5738e-129
0.5684 	-2.57524e-129
0.5691 	-6.33323e-129
0.5698 	-1.89997e-128
0.5705 	-1.35712e-128
0.5712 	-9.4933e-130
0.5719 	-6.86491e-131
0.5726 	-6.86869e-131
0.5733 	-6.87247e-131
0.574 	-1.20204e-130
0.5747 	-4.56776e-130
0.5754 	-4.08694e-130
0.5761 	-7.21232e-131
0.5768 	-1.78104e-132
0.5775 	-1.782e-132
0.5782 	-1.78296e-132
0.5789 	-1.86313e-132
0.5796 	-1.05577e-131
0.5803 	-1.17998e-131
0.581 	-3.10524e-132
0.5817 	-4.49843e-134
0.5824 	-4.50078e-134
0.5831 	-4.50313e-134
0.5838 	-4.50548e-134
0.5845 	-2.34287e-133
0.5852 	-3.28001e-133
0.5859 	-1.09334e-133
0.5866 	-1.10775e-135
0.5873 	-1.1083e-135
0.588 	-1.10886e-135
0.5887 	-1.10942e-135
0.5894 	-4.97898e-135
0.5901 	-8.80897e-135
0.5908 	-3.447e-135
0.5915 	-2.66566e-137
0.5922 	-2.66695e-137
0.5929 	-2.66824e-137
0.5936 	-2.66953e-137
0.5943 	-1.00956e-136
0.595 	-2.29444e-136
0.5957 	-1.00956e-136
0.5964 	-6.27659e-139
0.5971 	-6.27946e-139
0.5978 	-6.28233e-139
0.5985 	-6.2852e-139
0.5992 	-1.93681e-138
0.5999 	-4.94963e-138
0.6006 	-2.79762e-138
0.6013 	-1.44684e-140
0.602 	-1.44746e-140
0.6027 	-1.44808e-140
0.6034 	-1.44869e-140
0.6041 	-3.45814e-140
0.6048 	-1.03744e-139
0.6055 	-7.41029e-140
0.6062 	-5.15595e-141
0.6069 	-3.26981e-142
0.6076 	-3.27108e-142
0.6083 	-3.27236e-142
0.609 	-5.55726e-142
0.6097 	-2.11175e-141
0.6104 	-1.88946e-141
0.6111 	-3.3344e-142
0.6118 	-7.24467e-144
0.6125 	-7.24717e-144
0.6132 	-7.24968e-144
0.6139 	-7.35791e-144
0.6146 	-4.16943e-143
0.6153 	-4.65995e-143
0.616 	-1.22632e-143
0.6167 	-1.57527e-145
0.6174 	-1.57573e-145
0.6181 	-1.5762e-145
0.6188 	-1.57666e-145
0.6195 	-7.9673e-145
0.6202 	-1.11542e-144
0.6209 	-3.7181e-145
0.6216 	-3.36308e-147
0.6223 	-3.36388e-147
0.623 	-3.36467e-147
0.6237 	-3.36546e-147
0.6244 	-1.4683e-146
0.6251 	-2.59776e-146
0.6258 	-1.01652e-146
0.6265 	-7.05266e-149
0.6272 	-7.05384e-149
0.6279 	-7.05501e-149
0.6286 	-7.05619e-149
0.6293 	-2.59513e-148
0.63 	-5.898e-148
0.6307 	-2.59513e-148
0.6314 	-1.45338e-150
0.6321 	-1.45351e-150
0.6328 	-1.45364e-150
0.6335 	-1.45376e-150
0.6342 	-4.35838e-150
0.6349 	-1.1138e-149
0.6356 	-6.29542e-150
0.6363 	-2.94436e-152
0.637 	-2.94435e-152
0.6377 	-2.94434e-152
0.6384 	-2.94433e-152
0.6391 	-6.84053e-152
0.6398 	-2.05213e-151
0.6405 	-1.46581e-151
0.6412 	-1.01648e-152
0.6419 	-5.86541e-154
0.6426 	-5.86477e-154
0.6433 	-5.86413e-154
0.644 	-9.69664e-154
0.6447 	-3.68464e-153
0.6454 	-3.29679e-153
0.6461 	-5.81921e-154
0.6468 	-1.14945e-155
0.6475 	-1.14918e-155
0.6482 	-1.1489e-155
0.6489 	-1.14863e-155
0.6496 	-6.4362e-155
0.6503 	-7.1934e-155
0.651 	-1.89306e-155
0.6517 	-2.2171e-157
0.6524 	-2.21608e-157
0.6531 	-2.21505e-157
0.6538 	-2.21402e-157
0.6545 	-1.09097e-156
0.6552 	-1.52736e-156
0.6559 	-5.09133e-157
0.6566 	-4.21308e-159
0.6573 	-4.20951e-159
0.658 	-4.20594e-159
0.6587 	-4.20237e-159
0.6594 	-1.78867e-158
0.6601 	-3.16453e-158
0.6608 	-1.23833e-158
0.6615 	-7.88417e-161
0.6622 	-7.87339e-161
0.6629 	-7.86261e-161
0.6636 	-7.85183e-161
0.6643 	-2.8184e-160
0.665 	-6.40528e-160
0.6657 	-2.8184e-160
0.6664 	-1.45306e-162
0.6671 	-1.45013e-162
0.6678 	-1.4472e-162
0.6685 	-1.44427e-162
0.6692 	-4.22723e-162
0.6699 	-1.08024e-161
0.6706 	-6.10587e-162
0.6713 	-2.63771e-164
0.672 	-2.63037e-164
0.6727 	-2.62303e-164
0.6734 	-2.61568e-164
0.6741 	-5.93398e-164
0.6748 	-1.78005e-163
0.6755 	-1.27149e-163
0.6762 	-8.79698e-165
0.6769 	-4.69854e-166
0.6776 	-4.68146e-166
0.6783 	-4.66439e-166
0.679 	-7.53201e-166
0.6797 	-2.86174e-165
0.6804 	-2.56052e-165
0.6811 	-4.52218e-166
0.6818 	-8.26359e-168
0.6825 	-8.22625e-168
0.6832 	-8.1889e-168
0.6839 	-8.15155e-168
0.6846 	-4.47932e-167
0.6853 	-5.00626e-167
0.686 	-1.31767e-167
0.6867 	-1.43048e-169
0.6874 	-1.42277e-169
0.6881 	-1.41507e-169
0.6888 	-1.40736e-169
0.6895 	-6.80632e-169
0.6902 	-9.52862e-169
0.6909 	-3.1766e-169
0.6916 	-2.43392e-171
0.6923 	-2.41894e-171
0.693 	-2.40396e-171
0.6937 	-2.38898e-171
0.6944 	-9.98927e-171
0.6951 	-1.76725e-170
0.6958 	-6.91598e-171
0.6965 	-9.70859e-175
0.6972 	-6.94242e-175
0.6979 	-4.17625e-175
0.6986 	-1.41008e-175
0.6993 	-2.03883e-176
0.7 	-2.03784e-176
