0 	1
0.0007 	1
0.0014 	1
0.0021 	1
0.0028 	1
0.0035 	1
0.0042 	1
0.0049 	1
0.0056 	1
0.0063 	1
0.007 	1
0.0077 	1
0.0084 	1
0.0091 	1
0.0098 	1
0.0105 	1
0.0112 	1
0.0119 	1
0.0126 	1
0.0133 	1
0.014 	1
0.0147 	1
0.0154 	1
0.0161 	1
0.0168 	1
0.0175 	1
0.0182 	1
0.0189 	1
0.0196 	1
0.0203 	1
0.021 	1
0.0217 	1
0.0224 	1
0.0231 	1
0.0238 	1
0.0245 	1
0.0252 	1
0.0259 	1
0.0266 	1
0.0273 	1
0.028 	1
0.0287 	1
0.0294 	1
0.0301 	1
0.0308 	1
0.0315 	1
0.0322 	1
0.0329 	1
0.0336 	1
0.0343 	1
0.035 	1
0.0357 	1
0.0364 	1
0.0371 	1
0.0378 	1
0.0385 	1
0.0392 	1
0.0399 	1
0.0406 	1
0.0413 	1
0.042 	1
0.0427 	1
0.0434 	1
0.0441 	1
0.0448 	1
0.0455 	1
0.0462 	1
0.0469 	1
0.0476 	1
0.0483 	1
0.049 	1
0.0497 	1
0.0504 	1
0.0511 	1
0.0518 	1
0.0525 	1
0.0532 	1
0.0539 	1
0.0546 	1
0.0553 	1
0.056 	1
0.0567 	1
0.0574 	1
0.0581 	1
0.0588 	1
0.0595 	1
0.0602 	1
0.0609 	1
0.0616 	1
0.0623 	1
0.063 	1
0.0637 	1
0.0644 	1
0.0651 	1
0.0658 	1
0.0665 	1
0.0672 	1
0.0679 	1
0.0686 	1
0.0693 	1
0.07 	1
0.0707 	1
0.0714 	1
0.0721 	1
0.0728 	1
0.0735 	1
0.0742 	1
0.0749 	1
0.0756 	1
0.0763 	1
0.077 	1
0.0777 	1
0.0784 	1
0.0791 	1
0.0798 	1
0.0805 	1
0.0812 	1
0.0819 	1
0.0826 	1
0.0833 	1
0.084 	1
0.0847 	1
0.0854 	1
0.0861 	1
0.0868 	1
0.0875 	1
0.0882 	1
0.0889 	1
0.0896 	1
0.0903 	1
0.091 	1
0.0917 	1
0.0924 	1
0.0931 	1
0.0938 	1
0.0945 	1
0.0952 	1
0.0959 	1
0.0966 	1
0.0973 	1
0.098 	1
0.0987 	1
0.0994 	1
0.1001 	1
0.1008 	1
0.1015 	1
0.1022 	1
0.1029 	1
0.1036 	1
0.1043 	1
0.105 	1
0.1057 	1
0.1064 	1
0.1071 	1
0.1078 	1
0.1085 	1
0.1092 	1
0.1099 	1
0.1106 	1
0.1113 	1
0.112 	1
0.1127 	1
0.1134 	1
0.1141 	1
0.1148 	1
0.1155 	1
0.1162 	1
0.1169 	1
0.1176 	1
0.1183 	1
0.119 	1
0.1197 	1
0.1204 	1
0.1211 	1
0.1218 	1
0.1225 	1
0.1232 	1
0.1239 	1
0.1246 	1
0.1253 	1
0.126 	1
0.1267 	1
0.1274 	1
0.1281 	1
0.1288 	1
0.1295 	1
0.1302 	1
0.1309 	1
0.1316 	1
0.1323 	1
0.133 	1
0.1337 	1
0.1344 	1
0.1351 	1
0.1358 	1
0.1365 	1
0.1372 	1
0.1379 	1
0.1386 	1
0.1393 	1
0.14 	1
0.1407 	1
0.1414 	1
0.1421 	1
0.1428 	1
0.1435 	1
0.1442 	1
0.1449 	1
0.1456 	1
0.1463 	1
0.147 	1
0.1477 	1
0.1484 	1
0.1491 	1
0.1498 	1
0.1505 	1
0.1512 	1
0.1519 	1
0.1526 	1
0.1533 	1
0.154 	1
0.1547 	1
0.1554 	1
0.1561 	1
0.1568 	1
0.1575 	1
0.1582 	1
0.1589 	1
0.1596 	1
0.1603 	1
0.161 	1
0.1617 	1
0.1624 	1
0.1631 	1
0.1638 	1
0.1645 	1
0.1652 	1
0.1659 	1
0.1666 	1
0.1673 	1
0.168 	1
0.1687 	1
0.1694 	1
0.1701 	1
0.1708 	1
0.1715 	1
0.1722 	1
0.1729 	1
0.1736 	1
0.1743 	1
0.175 	1
0.1757 	1
0.1764 	1
0.1771 	1
0.1778 	1
0.1785 	1
0.1792 	1
0.1799 	1
0.1806 	1
0.1813 	1
0.182 	1
0.1827 	1
0.1834 	1
0.1841 	1
0.1848 	1
0.1855 	1
0.1862 	1
0.1869 	1
0.1876 	1
0.1883 	1
0.189 	1
0.1897 	1
0.1904 	1
0.1911 	1
0.1918 	1
0.1925 	1
0.1932 	1
0.1939 	1
0.1946 	1
0.1953 	1
0.196 	1
0.1967 	1
0.1974 	1
0.1981 	1
0.1988 	1
0.1995 	1
0.2002 	1
0.2009 	1
0.2016 	1
0.2023 	1
0.203 	1
0.2037 	1
0.2044 	1
0.2051 	1
0.2058 	1
0.2065 	1
0.2072 	1
0.2079 	1
0.2086 	1
0.2093 	1
0.21 	1
0.2107 	1
0.2114 	1
0.2121 	1
0.2128 	1
0.2135 	1
0.2142 	1
0.2149 	1
0.2156 	1
0.2163 	1
0.217 	1
0.2177 	1
0.2184 	1
0.2191 	1
0.2198 	1
0.2205 	1
0.2212 	1
0.2219 	1
0.2226 	1
0.2233 	1
0.224 	1
0.2247 	1
0.2254 	1
0.2261 	1
0.2268 	1
0.2275 	1
0.2282 	1
0.2289 	1
0.2296 	1
0.2303 	1
0.231 	1
0.2317 	1
0.2324 	1
0.2331 	1
0.2338 	1
0.2345 	1
0.2352 	1
0.2359 	1
0.2366 	1
0.2373 	1
0.238 	1
0.2387 	1
0.2394 	1
0.2401 	1
0.2408 	1
0.2415 	1
0.2422 	1
0.2429 	1
0.2436 	1
0.2443 	1
0.245 	1
0.2457 	1
0.2464 	1
0.2471 	1
0.2478 	1
0.2485 	1
0.2492 	1
0.2499 	1
0.2506 	1
0.2513 	1
0.252 	1
0.2527 	1
0.2534 	1
0.2541 	1
0.2548 	1
0.2555 	1
0.2562 	1
0.2569 	1
0.2576 	1
0.2583 	1
0.259 	1
0.2597 	1
0.2604 	1
0.2611 	1
0.2618 	1
0.2625 	1
0.2632 	1
0.2639 	1
0.2646 	1
0.2653 	1
0.266 	1
0.2667 	1
0.2674 	1
0.2681 	1
0.2688 	0.999994
0.2695 	0.999986
0.2702 	0.999982
0.2709 	0.99999
0.2716 	0.999974
0.2723 	0.999936
0.273 	0.999898
0.2737 	0.999505
0.2744 	0.998743
0.2751 	0.998154
0.2758 	0.998626
0.2765 	0.998212
0.2772 	0.996205
0.2779 	0.994197
0.2786 	0.988652
0.2793 	0.975321
0.28 	0.961458
0.2807 	0.961094
0.2814 	0.95634
0.2821 	0.935488
0.2828 	0.914637
0.2835 	0.888164
0.2842 	0.82996
0.2849 	0.764438
0.2856 	0.713844
0.2863 	0.665228
0.287 	0.609983
0.2877 	0.554737
0.2884 	0.49943
0.2891 	0.43991
0.2898 	0.376822
0.2905 	0.308437
0.2912 	0.237933
0.2919 	0.188164
0.2926 	0.139989
0.2933 	0.0918144
0.294 	0.0743755
0.2947 	0.0726687
0.2954 	0.063288
0.2961 	0.0481518
0.2968 	0.0349646
0.2975 	0.0223089
0.2982 	0.00965328
0.2989 	0.00552689
0.2996 	0.00537129
0.3003 	0.00480215
0.301 	0.00368164
0.3017 	0.00269062
0.3024 	0.00177155
0.3031 	0.000852479
0.3038 	0.00041944
0.3045 	0.000423554
0.3052 	0.000399922
0.3059 	0.000306924
0.3066 	0.000220601
0.3073 	0.000140952
0.308 	6.13027e-05
0.3087 	1.56552e-05
0.3094 	1.52572e-05
0.3101 	1.52366e-05
0.3108 	1.17612e-05
0.3115 	8.44211e-06
0.3122 	5.40454e-06
0.3129 	2.36696e-06
0.3136 	2.78269e-07
0.3143 	1.93535e-07
0.315 	2.02731e-07
0.3157 	1.57454e-07
0.3164 	1.13435e-07
0.3171 	7.40235e-08
0.3178 	3.46122e-08
0.3185 	2.56497e-09
0.3192 	5.55707e-10
0.3199 	6.43979e-10
0.3206 	5.35974e-10
0.3213 	3.95908e-10
0.322 	2.64297e-10
0.3227 	1.32685e-10
0.3234 	1.01843e-11
0.3241 	5.89718e-12
0.3248 	6.18596e-12
0.3255 	6.35026e-12
0.3262 	6.46476e-12
0.3269 	6.48158e-12
0.3276 	6.49088e-12
0.3283 	6.50019e-12
0.329 	6.52626e-12
0.3297 	6.48893e-12
0.3304 	6.48644e-12
0.3311 	6.51008e-12
0.3318 	6.50162e-12
0.3325 	6.48441e-12
0.3332 	6.4672e-12
0.3339 	6.39711e-12
0.3346 	6.28299e-12
0.3353 	6.20516e-12
0.336 	6.17574e-12
0.3367 	6.13632e-12
0.3374 	6.09135e-12
0.3381 	6.04637e-12
0.3388 	5.96815e-12
0.3395 	5.85766e-12
0.3402 	5.77351e-12
0.3409 	5.75521e-12
0.3416 	5.71903e-12
0.3423 	5.66494e-12
0.343 	5.61086e-12
0.3437 	5.53317e-12
0.3444 	5.39845e-12
0.3451 	5.27493e-12
0.3458 	5.23378e-12
0.3465 	5.17998e-12
0.3472 	5.1034e-12
0.3479 	5.02682e-12
0.3486 	4.93479e-12
0.3493 	4.7865e-12
0.35 	4.63068e-12
0.3507 	4.54389e-12
0.3514 	4.45219e-12
0.3521 	4.34249e-12
0.3528 	4.23279e-12
0.3535 	4.11834e-12
0.3542 	3.97088e-12
0.3549 	3.81529e-12
0.3556 	3.66588e-12
0.3563 	3.51763e-12
0.357 	3.37121e-12
0.3577 	3.22479e-12
0.3584 	3.07934e-12
0.3591 	2.94967e-12
0.3598 	2.82092e-12
0.3605 	2.64395e-12
0.3612 	2.44769e-12
0.3619 	2.27986e-12
0.3626 	2.11421e-12
0.3633 	1.94857e-12
0.364 	1.8476e-12
0.3647 	1.77101e-12
0.3654 	1.62931e-12
0.3661 	1.43877e-12
0.3668 	1.2819e-12
0.3675 	1.13421e-12
0.3682 	9.86526e-13
0.3689 	9.0938e-13
0.3696 	8.83768e-13
0.3703 	8.13717e-13
0.371 	6.84413e-13
0.3717 	5.7553e-13
0.3724 	4.77992e-13
0.3731 	3.80453e-13
0.3738 	3.26434e-13
0.3745 	3.26178e-13
0.3752 	3.09192e-13
0.3759 	2.50381e-13
0.3766 	1.98414e-13
0.3773 	1.53292e-13
0.378 	1.0817e-13
0.3787 	7.99136e-14
0.3794 	8.23301e-14
0.3801 	8.27828e-14
0.3808 	6.56577e-14
0.3815 	4.97293e-14
0.3822 	3.59549e-14
0.3829 	2.21806e-14
0.3836 	1.23576e-14
0.3843 	1.2883e-14
0.385 	1.4115e-14
0.3857 	1.1143e-14
0.3864 	8.26111e-15
0.3871 	5.70983e-15
0.3878 	3.15855e-15
0.3885 	1.05322e-15
0.3892 	1.07887e-15
0.3899 	1.25106e-15
0.3906 	1.04426e-15
0.3913 	7.75847e-16
0.392 	5.27666e-16
0.3927 	2.79486e-16
0.3934 	4.26309e-17
0.3941 	4.00718e-17
0.3948 	4.78794e-17
0.3955 	4.28961e-17
0.3962 	3.27964e-17
0.3969 	2.30517e-17
0.3976 	1.33343e-17
0.3983 	3.61699e-18
0.399 	2.37598e-18
0.3997 	2.24657e-18
0.4004 	2.04106e-18
0.4011 	1.77847e-18
0.4018 	1.53371e-18
0.4025 	1.29382e-18
0.4032 	1.05393e-18
0.4039 	8.91928e-19
0.4046 	7.70848e-19
0.4053 	6.58386e-19
0.406 	5.57416e-19
0.4067 	4.71881e-19
0.4074 	3.94921e-19
0.4081 	3.17962e-19
0.4088 	2.54897e-19
0.4095 	2.2195e-19
0.4102 	1.88159e-19
0.4109 	1.52263e-19
0.4116 	1.20852e-19
0.4123 	9.39253e-20
0.413 	6.69985e-20
0.4137 	4.59605e-20
0.4144 	3.99885e-20
0.4151 	3.43701e-20
0.4158 	2.69886e-20
0.4165 	2.02606e-20
0.4172 	1.47086e-20
0.4179 	9.15662e-21
0.4186 	4.68989e-21
0.4193 	3.93187e-21
0.42 	3.57104e-21
0.4207 	2.77546e-21
0.4214 	2.01592e-21
0.4221 	1.38856e-21
0.4228 	7.61198e-22
0.4235 	2.15932e-22
0.4242 	1.53256e-22
0.4249 	1.51803e-22
0.4256 	1.22797e-22
0.4263 	8.95327e-23
0.427 	6.06229e-23
0.4277 	3.1713e-23
0.4284 	3.6769e-24
0.4291 	1.39923e-24
0.4298 	1.55628e-24
0.4305 	1.35663e-24
0.4312 	1.01431e-24
0.4319 	6.92021e-25
0.4326 	3.71268e-25
0.4333 	5.05152e-26
0.434 	3.17945e-27
0.4347 	3.48885e-27
0.4354 	3.30363e-27
0.4361 	2.74746e-27
0.4368 	2.20907e-27
0.4375 	1.67554e-27
0.4382 	1.14202e-27
0.4389 	9.74032e-28
0.4396 	9.51565e-28
0.4403 	9.10548e-28
0.441 	8.448e-28
0.4417 	7.88266e-28
0.4424 	7.36852e-28
0.4431 	6.85438e-28
0.4438 	6.49747e-28
0.4445 	6.38724e-28
0.4452 	6.14784e-28
0.4459 	5.58552e-28
0.4466 	5.09563e-28
0.4473 	4.67817e-28
0.448 	4.26072e-28
0.4487 	3.9489e-28
0.4494 	3.91129e-28
0.4501 	3.82466e-28
0.4508 	3.37503e-28
0.4515 	2.9655e-28
0.4522 	2.62817e-28
0.4529 	2.29083e-28
0.4536 	2.02138e-28
0.4543 	1.9985e-28
0.455 	2.00239e-28
0.4557 	1.70878e-28
0.4564 	1.42889e-28
0.4571 	1.19926e-28
0.4578 	9.69641e-29
0.4585 	7.68159e-29
0.4592 	7.51037e-29
0.4599 	7.5967e-29
0.4606 	6.48098e-29
0.4613 	5.18236e-29
0.462 	4.11044e-29
0.4627 	3.03853e-29
0.4634 	1.98756e-29
0.4641 	1.89294e-29
0.4648 	1.93799e-29
0.4655 	1.68159e-29
0.4662 	1.3046e-29
0.4669 	9.82654e-30
0.4676 	6.6494e-30
0.4683 	3.47227e-30
0.469 	2.84592e-30
0.4697 	2.97213e-30
0.4704 	2.66874e-30
0.4711 	2.04315e-30
0.4718 	1.48026e-30
0.4725 	9.34458e-31
0.4732 	3.88659e-31
0.4739 	2.08593e-31
0.4746 	2.24872e-31
0.4753 	2.12786e-31
0.476 	1.6288e-31
0.4767 	1.1608e-31
0.4774 	7.10043e-32
0.4781 	2.59287e-32
0.4788 	5.1084e-33
0.4795 	5.7786e-33
0.4802 	5.8745e-33
0.4809 	4.5347e-33
0.4816 	3.24353e-33
0.4823 	2.00099e-33
0.483 	7.58454e-34
0.4837 	3.15572e-35
0.4844 	2.96545e-35
0.4851 	3.28481e-35
0.4858 	2.56126e-35
0.4865 	1.85301e-35
0.4872 	1.17229e-35
0.4879 	4.91568e-36
0.4886 	8.15514e-38
0.4893 	1.9636e-38
0.49 	2.38457e-38
0.4907 	1.87709e-38
0.4914 	1.37507e-38
0.4921 	8.93118e-39
0.4928 	4.11164e-39
0.4935 	4.1294e-41
0.4942 	1.25482e-42
0.4949 	1.56099e-42
0.4956 	1.3128e-42
0.4963 	9.73519e-43
0.497 	6.5107e-43
0.4977 	3.2862e-43
0.4984 	1.09217e-44
0.4991 	9.5125e-45
0.4998 	1.12429e-44
0.5005 	1.04495e-44
0.5012 	8.64676e-45
0.5019 	7.92235e-45
0.5026 	7.28089e-45
0.5033 	6.63943e-45
0.504 	6.96252e-45
0.5047 	8.17443e-45
0.5054 	7.806e-45
0.5061 	6.25232e-45
0.5068 	5.0672e-45
0.5075 	3.98259e-45
0.5082 	2.89798e-45
0.5089 	2.69845e-45
0.5096 	3.28083e-45
0.5103 	3.32572e-45
0.511 	2.65395e-45
0.5117 	2.03821e-45
0.5124 	1.4536e-45
0.5131 	8.68986e-46
0.5138 	6.28749e-46
0.5145 	7.79499e-46
0.5152 	8.39033e-46
0.5159 	6.70527e-46
0.5166 	5.03557e-46
0.5173 	3.38125e-46
0.518 	1.72692e-46
0.5187 	7.87144e-47
0.5194 	9.80938e-47
0.5201 	1.12944e-46
0.5208 	9.05714e-47
0.5215 	6.7765e-47
0.5222 	4.41784e-47
0.5229 	2.05918e-47
0.5236 	3.89378e-48
0.5243 	4.74008e-48
0.525 	5.86325e-48
0.5257 	4.71634e-48
0.5264 	3.5516e-48
0.5271 	2.32146e-48
0.5278 	1.09132e-48
0.5285 	4.53507e-50
0.5292 	5.31219e-50
0.5299 	6.6892e-50
0.5306 	5.70074e-50
0.5313 	4.31406e-50
0.532 	2.87569e-50
0.5327 	1.43732e-50
0.5334 	7.60256e-53
0.5341 	8.41227e-53
0.5348 	1.0803e-52
0.5355 	9.77756e-53
0.5362 	7.38562e-53
0.5369 	5.03061e-53
0.5376 	2.67843e-53
0.5383 	3.26251e-54
0.539 	1.67285e-56
0.5397 	2.19233e-56
0.5404 	2.11808e-56
0.5411 	1.59853e-56
0.5418 	1.10632e-56
0.5425 	6.21556e-57
0.5432 	1.36796e-57
0.5439 	7.16576e-61
0.5446 	9.58296e-61
0.5453 	9.92819e-61
0.546 	7.51079e-61
0.5467 	5.25498e-61
0.5474 	3.08894e-61
0.5481 	9.22903e-62
0.5488 	8.79867e-66
0.5495 	1.19544e-65
0.5502 	1.33066e-65
0.5509 	1.01503e-65
0.5516 	7.17611e-66
0.5523 	4.38394e-66
0.553 	1.59177e-66
0.5537 	2.21393e-70
0.5544 	2.78853e-70
0.5551 	3.33078e-70
0.5558 	2.57126e-70
0.5565 	1.84078e-70
0.5572 	1.16254e-70
0.5579 	4.84298e-71
0.5586 	7.7138e-75
0.5593 	8.06517e-75
0.56 	1.02536e-74
0.5607 	8.06362e-75
0.5614 	5.90073e-75
0.5621 	3.83715e-75
0.5628 	1.77357e-75
0.5635 	3.34057e-78
0.5642 	-1.15511e-76
0.5649 	-3.00202e-76
0.5656 	-1.68282e-76
0.5663 	3.28727e-78
0.567 	4.30655e-78
0.5677 	5.32584e-78
0.5684 	6.34512e-78
0.5691 	-1.0325e-76
0.5698 	-3.2239e-76
0.5705 	-2.28474e-76
0.5712 	-9.33566e-78
0.5719 	1.05421e-77
0.5726 	1.50927e-77
0.5733 	1.96432e-77
0.574 	-4.63074e-77
0.5747 	-2.32764e-76
0.5754 	-2.06127e-76
0.5761 	-1.96692e-77
0.5768 	3.62122e-77
0.5775 	5.64823e-77
0.5782 	7.67524e-77
0.5789 	8.46335e-77
0.5796 	9.41052e-77
0.5803 	9.54662e-77
0.581 	8.60128e-77
0.5817 	1.64059e-76
0.5824 	2.90716e-76
0.5831 	4.17373e-76
0.5838 	5.11349e-76
0.5845 	1.05881e-75
0.5852 	1.29347e-75
0.5859 	7.46143e-76
0.5866 	1.0227e-75
0.5873 	2.12314e-75
0.588 	3.22358e-75
0.5887 	3.85862e-75
0.5894 	5.96542e-75
0.5901 	7.58621e-75
0.5908 	5.31874e-75
0.5915 	7.69487e-75
0.5922 	1.84294e-74
0.5929 	2.9164e-74
0.5936 	3.69011e-74
0.5943 	4.57205e-74
0.595 	5.69445e-74
0.5957 	4.57292e-74
0.5964 	4.90102e-74
0.5971 	1.05444e-73
0.5978 	1.61878e-73
0.5985 	2.10662e-73
0.5992 	2.4061e-73
0.5999 	2.8719e-73
0.6006 	2.53944e-73
0.6013 	2.18705e-73
0.602 	3.30523e-73
0.6027 	4.42342e-73
0.6034 	5.5416e-73
0.6041 	6.09276e-73
0.6048 	7.17671e-73
0.6055 	6.71251e-73
0.6062 	5.62904e-73
0.6069 	6.27316e-73
0.6076 	7.05016e-73
0.6083 	7.82717e-73
0.609 	8.4589e-73
0.6097 	9.89718e-73
0.6104 	9.69201e-73
0.6111 	8.25424e-73
0.6118 	7.34885e-73
0.6125 	6.58866e-73
0.6132 	5.82846e-73
0.6139 	5.80961e-73
0.6146 	6.7692e-73
0.6153 	6.90636e-73
0.616 	5.94696e-73
0.6167 	4.78662e-73
0.6174 	3.51467e-73
0.6181 	2.24271e-73
0.6188 	1.70368e-73
0.6195 	1.9743e-73
0.6202 	2.0903e-73
0.6209 	1.81976e-73
0.6216 	1.53426e-73
0.6223 	1.2338e-73
0.623 	9.33342e-74
0.6237 	7.58329e-74
0.6244 	8.65587e-74
0.6251 	9.48123e-74
0.6258 	8.32841e-74
0.6265 	8.30449e-74
0.6272 	1.03126e-73
0.6279 	1.23207e-73
0.6286 	1.37791e-73
0.6293 	1.5463e-73
0.63 	1.76058e-73
0.6307 	1.54689e-73
0.6314 	1.40319e-73
0.6321 	1.51612e-73
0.6328 	1.62906e-73
0.6335 	1.72728e-73
0.6342 	1.90055e-73
0.6349 	2.16999e-73
0.6356 	1.97799e-73
0.6363 	1.71512e-73
0.637 	1.53061e-73
0.6377 	1.34611e-73
0.6384 	1.1616e-73
0.6391 	1.24728e-73
0.6398 	1.42338e-73
0.6405 	1.34795e-73
0.6412 	1.1719e-73
0.6419 	9.101e-74
0.6426 	6.41704e-74
0.6433 	3.73308e-74
0.644 	3.46171e-74
0.6447 	3.87914e-74
0.6454 	3.81498e-74
0.6461 	3.38964e-74
0.6468 	2.54241e-74
0.6475 	1.58013e-74
0.6482 	6.17842e-75
0.6489 	3.17419e-75
0.6496 	2.65512e-75
0.6503 	2.56526e-75
0.651 	3.0477e-75
0.6517 	2.55787e-75
0.6524 	1.5279e-75
0.6531 	4.97935e-76
0.6538 	-2.6609e-77
0.6545 	-9.40542e-76
0.6552 	-1.33395e-75
0.6559 	-4.26052e-76
0.6566 	1.7405e-77
0.6573 	-3.57945e-78
0.658 	-2.45639e-77
0.6587 	-3.72728e-77
0.6594 	-7.88377e-76
0.6601 	-1.3663e-75
0.6608 	-5.58933e-76
0.6615 	-4.05223e-77
0.6622 	-4.2234e-77
0.6629 	-4.39457e-77
0.6636 	-4.52045e-77
0.6643 	-5.85254e-76
0.665 	-1.27258e-75
0.6657 	-5.84825e-76
0.6664 	-4.44289e-77
0.6671 	-4.43435e-77
0.6678 	-4.4258e-77
0.6685 	-4.41417e-77
0.6692 	-4.07576e-76
0.6699 	-9.73101e-76
0.6706 	-5.682e-76
0.6713 	-4.19759e-77
0.672 	-4.1149e-77
0.6727 	-4.03222e-77
0.6734 	-3.94953e-77
0.6741 	-2.64559e-76
0.6748 	-7.15157e-76
0.6755 	-5.21066e-76
0.6762 	-6.90987e-77
0.6769 	-3.57856e-77
0.6776 	-3.46763e-77
0.6783 	-3.3567e-77
0.679 	-1.57287e-76
0.6797 	-5.04869e-76
0.6804 	-4.54402e-76
0.6811 	-1.05398e-76
0.6818 	-2.96636e-77
0.6825 	-2.84567e-77
0.6832 	-2.72498e-77
0.6839 	-8.19775e-77
0.6846 	-3.40189e-76
0.6853 	-3.76473e-76
0.686 	-1.16855e-76
0.6867 	-2.33094e-77
0.6874 	-2.20268e-77
0.6881 	-2.07441e-77
0.6888 	-3.27367e-77
0.6895 	-2.11978e-76
0.6902 	-2.88375e-76
0.6909 	-1.07662e-76
0.6916 	-1.65736e-77
0.6923 	-1.51084e-77
0.693 	-1.36432e-77
0.6937 	-1.25662e-77
0.6944 	-1.07987e-76
0.6951 	-1.81183e-76
0.6958 	-7.67512e-77
0.6965 	-9.11532e-78
0.6972 	-7.71187e-78
0.6979 	-6.30842e-78
0.6986 	-5.16201e-78
0.6993 	-4.23032e-78
0.7 	-3.16603e-78
