0 	1
0.0007 	1
0.0014 	1
0.0021 	1
0.0028 	1
0.0035 	1
0.0042 	1
0.0049 	1
0.0056 	1
0.0063 	1
0.007 	1
0.0077 	1
0.0084 	1
0.0091 	1
0.0098 	1
0.0105 	1
0.0112 	1
0.0119 	1
0.0126 	1
0.0133 	1
0.014 	1
0.0147 	1
0.0154 	1
0.0161 	1
0.0168 	1
0.0175 	1
0.0182 	1
0.0189 	1
0.0196 	1
0.0203 	1
0.021 	1
0.0217 	1
0.0224 	1
0.0231 	1
0.0238 	1
0.0245 	1
0.0252 	1
0.0259 	1
0.0266 	1
0.0273 	1
0.028 	1
0.0287 	1
0.0294 	1
0.0301 	1
0.0308 	1
0.0315 	1
0.0322 	1
0.0329 	1
0.0336 	1
0.0343 	1
0.035 	1
0.0357 	1
0.0364 	1
0.0371 	1
0.0378 	1
0.0385 	1
0.0392 	1
0.0399 	1
0.0406 	1
0.0413 	1
0.042 	1
0.0427 	1
0.0434 	1
0.0441 	1
0.0448 	1
0.0455 	1
0.0462 	1
0.0469 	1
0.0476 	1
0.0483 	1
0.049 	1
0.0497 	1
0.0504 	1
0.0511 	1
0.0518 	1
0.0525 	1
0.0532 	1
0.0539 	1
0.0546 	1
0.0553 	1
0.056 	1
0.0567 	1
0.0574 	1
0.0581 	1
0.0588 	1
0.0595 	1
0.0602 	1
0.0609 	1
0.0616 	1
0.0623 	1
0.063 	1
0.0637 	1
0.0644 	1
0.0651 	1
0.0658 	1
0.0665 	1
0.0672 	1
0.0679 	1
0.0686 	1
0.0693 	1
0.07 	1
0.0707 	1
0.0714 	1
0.0721 	1
0.0728 	1
0.0735 	1
0.0742 	1
0.0749 	1
0.0756 	1
0.0763 	1
0.077 	1
0.0777 	1
0.0784 	1
0.0791 	1
0.0798 	1
0.0805 	1
0.0812 	1
0.0819 	1
0.0826 	1
0.0833 	1
0.084 	1
0.0847 	1
0.0854 	1
0.0861 	1
0.0868 	1
0.0875 	1
0.0882 	1
0.0889 	1
0.0896 	1
0.0903 	1
0.091 	1
0.0917 	1
0.0924 	1
0.0931 	1
0.0938 	1
0.0945 	1
0.0952 	1
0.0959 	1
0.0966 	1
0.0973 	1
0.098 	1
0.0987 	1
0.0994 	1
0.1001 	1
0.1008 	1
0.1015 	1
0.1022 	1
0.1029 	1
0.1036 	1
0.1043 	1
0.105 	1
0.1057 	1
0.1064 	1
0.1071 	1
0.1078 	1
0.1085 	1
0.1092 	1
0.1099 	1
0.1106 	1
0.1113 	1
0.112 	1
0.1127 	1
0.1134 	1
0.1141 	1
0.1148 	1
0.1155 	1
0.1162 	1
0.1169 	1
0.1176 	1
0.1183 	1
0.119 	1
0.1197 	1
0.1204 	1
0.1211 	1
0.1218 	1
0.1225 	1
0.1232 	1
0.1239 	1
0.1246 	1
0.1253 	1
0.126 	1
0.1267 	1
0.1274 	1
0.1281 	1
0.1288 	1
0.1295 	1
0.1302 	1
0.1309 	1
0.1316 	1
0.1323 	1
0.133 	1
0.1337 	1
0.1344 	1
0.1351 	1
0.1358 	1
0.1365 	1
0.1372 	1
0.1379 	1
0.1386 	1
0.1393 	1
0.14 	1
0.1407 	1
0.1414 	1
0.1421 	1
0.1428 	1
0.1435 	1
0.1442 	1
0.1449 	1
0.1456 	1
0.1463 	1
0.147 	1
0.1477 	1
0.1484 	1
0.1491 	1
0.1498 	1
0.1505 	1
0.1512 	1
0.1519 	1
0.1526 	1
0.1533 	1
0.154 	1
0.1547 	1
0.1554 	1
0.1561 	1
0.1568 	1
0.1575 	1
0.1582 	1
0.1589 	1
0.1596 	1
0.1603 	1
0.161 	1
0.1617 	1
0.1624 	1
0.1631 	1
0.1638 	1
0.1645 	1
0.1652 	1
0.1659 	1
0.1666 	1
0.1673 	1
0.168 	1
0.1687 	1
0.1694 	1
0.1701 	1
0.1708 	1
0.1715 	1
0.1722 	1
0.1729 	1
0.1736 	1
0.1743 	1
0.175 	1
0.1757 	1
0.1764 	1
0.1771 	1
0.1778 	1
0.1785 	1
0.1792 	1
0.1799 	1
0.1806 	1
0.1813 	1
0.182 	1
0.1827 	1
0.1834 	1
0.1841 	1
0.1848 	0.999999
0.1855 	0.999999
0.1862 	0.999992
0.1869 	0.999987
0.1876 	0.99998
0.1883 	0.999973
0.189 	0.999967
0.1897 	0.999959
0.1904 	0.999928
0.1911 	0.999926
0.1918 	0.999922
0.1925 	0.999918
0.1932 	0.999624
0.1939 	0.999319
0.1946 	0.998991
0.1953 	0.998416
0.196 	0.997662
0.1967 	0.996955
0.1974 	0.996357
0.1981 	0.995572
0.1988 	0.995392
0.1995 	0.995589
0.2002 	0.995691
0.2009 	0.995833
0.2023 	0.995434
0.2037 	0.996356
0.2044 	0.996276
0.2051 	0.99631
0.2065 	0.997765
0.2072 	0.998553
0.2086 	0.997694
0.21 	0.996285
0.2114 	0.995157
0.2128 	0.994997
0.2135 	0.996046
0.2149 	0.997539
0.2163 	0.995162
0.217 	0.995309
0.2177 	0.995892
0.2191 	0.998505
0.2205 	0.997711
0.2212 	0.996215
0.2226 	0.992986
0.224 	0.991059
0.2254 	0.991373
0.2261 	0.99232
0.2275 	0.993552
0.2289 	0.996556
0.2303 	0.998371
0.231 	0.997872
0.2317 	0.996675
0.2324 	0.995089
0.2331 	0.993851
0.2338 	0.992844
0.2345 	0.994102
0.2352 	0.995252
0.2366 	0.996343
0.2373 	0.995886
0.2387 	0.99646
0.2401 	0.998273
0.2408 	0.998809
0.2415 	0.999127
0.2422 	0.999052
0.2429 	0.998417
0.2443 	0.99552
0.2457 	0.992918
0.2471 	0.992827
0.2485 	0.994958
0.2492 	0.996696
0.2506 	0.999164
0.2513 	0.999416
0.2527 	0.998531
0.2541 	0.997061
0.2548 	0.996863
0.2562 	0.997618
0.2569 	0.997621
0.2576 	0.997635
0.259 	0.998313
0.2604 	0.999104
0.2618 	0.999173
0.2625 	0.999117
0.2632 	0.998699
0.2639 	0.998272
0.2646 	0.997815
0.2653 	0.997541
0.2667 	0.997819
0.2681 	0.998732
0.2695 	0.999036
0.2702 	0.999005
0.2716 	0.999206
0.273 	0.999533
0.2744 	0.999595
0.2758 	0.999614
0.2772 	0.999748
0.2779 	0.999786
0.2793 	0.999746
0.28 	0.999686
0.2814 	0.99966
0.2821 	0.999714
0.2835 	0.999814
0.2849 	0.999842
0.2863 	0.999797
0.2877 	0.999757
0.2891 	0.999751
0.2898 	0.999754
0.2912 	0.999725
0.2926 	0.999443
0.294 	0.998938
0.2954 	0.998743
0.2968 	0.998783
0.2975 	0.998799
0.2989 	0.998792
0.3003 	0.998817
0.3017 	0.999206
0.3031 	0.999701
0.3038 	0.999868
0.3052 	0.999951
0.3066 	0.999967
0.308 	0.999963
0.3087 	0.999958
0.3094 	0.999956
0.3108 	0.999962
0.3115 	0.999964
0.3122 	0.999958
0.3136 	0.999775
0.315 	0.999279
0.3164 	0.998967
0.3178 	0.998923
0.3185 	0.998899
0.3199 	0.999126
0.3213 	0.999662
0.3227 	0.999941
0.3241 	0.999993
0.3255 	0.999995
0.3262 	0.999995
0.3276 	0.999997
0.329 	0.999999
0.3304 	0.999999
0.3318 	0.99999
0.3332 	0.999973
0.3346 	0.999964
0.336 	0.999972
0.3367 	0.999981
0.3374 	0.99999
0.3381 	0.999995
0.3395 	1
0.3402 	1
0.3416 	1
0.343 	0.999995
0.3437 	0.99999
0.3451 	0.999978
0.3458 	0.999975
0.3472 	0.999965
0.3479 	0.999959
0.3493 	0.999952
0.35 	0.999951
0.3514 	0.999958
0.3528 	0.999977
0.3542 	0.999994
0.3556 	0.999999
0.3563 	0.999999
0.3577 	0.999998
0.3584 	0.999997
0.3591 	0.999997
0.3605 	0.999996
0.3612 	0.999995
0.3619 	0.999996
0.3626 	0.999996
0.364 	0.999998
0.3654 	0.999998
0.3668 	0.999962
0.3682 	0.999757
0.3689 	0.999607
0.3696 	0.999501
0.371 	0.999585
0.3717 	0.999713
0.3724 	0.999855
0.3738 	0.999987
0.3752 	0.999999
0.3766 	0.999999
0.378 	0.999999
0.3787 	0.999999
0.3801 	0.999999
0.3808 	0.999999
0.3815 	0.999994
0.3822 	0.999982
0.3829 	0.999784
0.3836 	0.999447
0.385 	0.975094
0.3864 	0.631983
0.3878 	0.179996
0.3885 	0.0619911
0.3899 	0.00186426
0.3913 	5.79419e-07
0.392 	2.56115e-07
0.3934 	2.94311e-08
0.3948 	1.64646e-07
0.3955 	6.83024e-07
0.3969 	2.33192e-06
0.3983 	3.81996e-06
0.3997 	3.86167e-06
0.4011 	2.12464e-06
0.4025 	4.2163e-07
0.4032 	1.95849e-07
0.4046 	1.21066e-07
0.406 	1.79248e-06
0.4074 	6.20233e-06
0.4088 	9.95823e-06
0.4102 	8.29571e-06
0.4116 	4.27374e-06
0.4123 	2.46497e-06
0.4137 	2.6233e-07
0.4151 	6.49366e-08
0.4165 	4.43507e-07
0.4179 	1.43721e-06
0.4186 	1.99926e-06
0.4193 	1.77189e-06
0.42 	1.32921e-06
0.4214 	8.29956e-08
0.4228 	1.20649e-08
0.4242 	5.88289e-09
0.4256 	2.1481e-08
0.427 	2.16204e-07
0.4277 	4.3988e-07
0.4284 	8.0881e-07
0.4291 	1.12676e-06
0.4298 	1.39368e-06
0.4312 	1.30452e-06
0.4326 	5.62354e-07
0.434 	7.41615e-08
0.4354 	9.00718e-09
0.4368 	7.83894e-09
0.4375 	1.29829e-08
0.4382 	2.87056e-08
0.4389 	4.34081e-08
0.4403 	6.07544e-08
0.441 	6.08675e-08
0.4424 	9.4312e-08
0.4438 	1.68344e-07
0.4445 	1.68317e-07
0.4459 	1.09262e-07
0.4473 	3.30636e-08
0.4487 	5.46706e-09
0.4501 	1.31572e-09
0.4515 	1.03897e-09
0.4529 	9.67561e-10
0.4536 	7.85988e-10
0.4543 	5.54961e-10
0.455 	3.10656e-10
0.4564 	1.26695e-10
0.4578 	1.18693e-10
0.4592 	1.19922e-10
0.4606 	7.46221e-11
0.462 	2.61044e-11
0.4634 	5.35295e-12
0.4641 	1.68294e-12
0.4655 	4.30767e-13
0.4662 	1.34898e-13
0.4676 	9.46733e-14
0.469 	1.81379e-13
0.4704 	2.14424e-13
0.4718 	2.0967e-13
0.4725 	1.85162e-13
0.4732 	1.53368e-13
0.4746 	1.06954e-13
0.476 	5.82982e-14
0.4774 	2.72464e-14
0.4788 	1.03587e-14
0.4802 	4.44439e-15
0.4816 	4.14528e-16
0.483 	4.06047e-18
0.4844 	3.77251e-27
0.4858 	3.77269e-27
0.4865 	5.00568e-20
0.4879 	2.50498e-19
0.4893 	2.24869e-19
0.4907 	2.02561e-19
0.4921 	9.80303e-20
0.4935 	3.36389e-20
0.4949 	1.13334e-20
0.4956 	8.87872e-21
0.497 	5.17403e-21
0.4977 	2.80257e-21
0.4991 	3.14877e-22
0.5005 	9.80386e-24
0.5019 	6.30748e-26
0.5026 	3.37389e-26
0.504 	2.51361e-30
0.5047 	2.43432e-30
0.5054 	2.03884e-30
0.5068 	1.27089e-30
0.5082 	1.19164e-30
0.5096 	2.51458e-29
0.511 	3.64514e-29
0.5124 	3.0557e-28
0.5138 	3.87919e-28
0.5152 	6.06203e-29
0.5166 	-9.39382e-44
0.518 	1.06656e-45
0.5187 	1.38548e-45
0.5201 	-1.52476e-46
0.5215 	7.44563e-47
0.5229 	1.98651e-46
0.5243 	8.76301e-47
0.5257 	-6.26748e-48
0.5271 	4.94339e-48
0.5278 	5.39232e-48
0.5285 	9.02255e-49
0.5292 	1.42052e-32
0.5299 	3.62978e-32
0.5306 	3.94538e-32
0.5313 	3.78729e-32
0.532 	1.57804e-32
0.5327 	-8.7433e-48
0.5341 	-2.27993e-49
0.5355 	-5.91214e-52
0.5369 	4.62768e-53
0.5383 	4.61215e-52
0.5397 	2.29967e-51
0.5411 	6.409e-51
0.5425 	1.17303e-36
0.5439 	4.41854e-36
0.5446 	1.54948e-35
0.5453 	2.47269e-35
0.5467 	2.88061e-35
0.5481 	1.55987e-35
0.5495 	8.20427e-36
0.5502 	5.73891e-36
0.5516 	2.73671e-36
0.553 	1.58096e-36
0.5537 	1.12635e-36
0.5551 	5.10787e-37
0.5565 	1.58142e-37
0.5579 	3.11065e-38
0.5593 	4.67343e-39
0.56 	2.17933e-50
0.5614 	-1.28905e-55
0.5628 	-5.5076e-57
0.5642 	3.30407e-58
0.5656 	-2.98781e-58
0.567 	-3.59486e-58
0.5684 	-4.57205e-58
0.5698 	1.86357e-59
0.5705 	8.30257e-46
0.5712 	1.99262e-45
0.5726 	2.57179e-42
0.5733 	4.15404e-42
0.5747 	8.97021e-42
0.5761 	1.056e-41
0.5775 	4.34125e-42
0.5789 	1.10113e-42
0.5803 	1.45296e-43
0.5817 	1.70354e-44
0.5831 	-2.32625e-61
0.5845 	1.98261e-61
0.5852 	-2.78926e-61
0.5866 	-5.68164e-62
0.588 	8.38248e-64
0.5894 	6.21299e-64
0.5908 	-1.67559e-63
0.5922 	-1.18387e-63
0.5936 	2.33999e-64
0.595 	3.74032e-49
0.5964 	3.3196e-49
0.5978 	2.39809e-50
0.5992 	1.53445e-50
0.6006 	1.75119e-66
0.602 	-1.43714e-67
0.6034 	3.0186e-68
0.6041 	5.9757e-68
0.6055 	-1.39528e-68
0.6069 	-3.57942e-69
0.6083 	3.0013e-69
0.6097 	7.84618e-69
0.6111 	3.41855e-69
0.6125 	-2.25013e-69
0.6139 	-1.23464e-70
0.6153 	5.76742e-71
0.6167 	5.61629e-71
0.6174 	2.21025e-71
0.6181 	1.03906e-71
0.6188 	2.82696e-72
0.6202 	-6.84179e-73
0.6216 	-9.1129e-74
0.623 	-1.64589e-74
0.6244 	1.38272e-60
0.6258 	1.04906e-58
0.6265 	2.07835e-58
0.6272 	3.35052e-58
0.6286 	3.71338e-58
0.63 	3.84803e-58
0.6314 	2.24773e-58
0.6328 	6.60765e-60
0.6342 	8.82662e-62
0.6349 	1.10333e-62
0.6363 	-2.34272e-79
0.637 	-2.743e-81
0.6377 	1.96185e-79
0.6391 	2.08202e-64
0.6398 	6.24432e-64
0.6412 	2.23092e-63
0.6426 	4.36416e-63
0.644 	5.89747e-63
0.6454 	6.56297e-63
0.6468 	5.51538e-63
0.6475 	4.46016e-63
0.6489 	2.53874e-63
0.6503 	1.14447e-63
0.6517 	4.05807e-64
0.6531 	1.09732e-64
0.6545 	1.94818e-65
0.6552 	3.13041e-66
0.6566 	5.00113e-67
0.658 	3.81149e-83
0.6594 	1.0439e-82
0.6608 	-1.035e-83
0.6615 	4.98333e-84
0.6629 	-4.05279e-84
0.6643 	1.17301e-84
0.6657 	-1.88241e-85
0.6664 	1.46501e-85
0.6671 	5.97652e-86
0.6685 	2.93701e-71
0.6699 	1.11745e-70
0.6706 	1.32223e-70
0.6713 	1.46642e-70
0.6727 	1.25132e-70
0.6741 	8.71e-71
0.6748 	6.15854e-71
0.6762 	2.21443e-71
0.6776 	2.39248e-72
0.6783 	1.15795e-72
0.6797 	8.73194e-74
0.6811 	-5.15063e-90
0.6825 	-2.24694e-89
0.6839 	-7.90259e-74
0.6853 	-9.14691e-73
0.686 	-1.51231e-72
0.6874 	-2.10335e-72
0.6888 	-2.08492e-72
0.6902 	-1.96024e-72
0.6916 	-1.82283e-72
0.693 	-1.68235e-72
0.6937 	-1.61016e-72
0.6951 	-1.43214e-72
0.6965 	-1.15789e-72
0.6972 	-9.66599e-73
0.6979 	-7.488e-73
0.6993 	-3.18265e-73
0.7 	-1.37256e-73
