0 	1
0.0007 	1
0.0014 	1
0.0021 	1
0.0028 	1
0.0035 	1
0.0042 	1
0.0049 	1
0.0056 	1
0.0063 	1
0.007 	1
0.0077 	1
0.0084 	1
0.0091 	1
0.0098 	1
0.0105 	1
0.0112 	1
0.0119 	1
0.0126 	1
0.0133 	1
0.014 	1
0.0147 	1
0.0154 	1
0.0161 	1
0.0168 	1
0.0175 	1
0.0182 	1
0.0189 	1
0.0196 	1
0.0203 	1
0.021 	1
0.0217 	1
0.0224 	1
0.0231 	1
0.0238 	1
0.0245 	1
0.0252 	1
0.0259 	1
0.0266 	1
0.0273 	1
0.028 	1
0.0287 	1
0.0294 	1
0.0301 	1
0.0308 	1
0.0315 	1
0.0322 	1
0.0329 	1
0.0336 	1
0.0343 	1
0.035 	1
0.0357 	1
0.0364 	1
0.0371 	1
0.0378 	1
0.0385 	1
0.0392 	1
0.0399 	1
0.0406 	1
0.0413 	1
0.042 	1
0.0427 	1
0.0434 	1
0.0441 	1
0.0448 	1
0.0455 	1
0.0462 	1
0.0469 	1
0.0476 	1
0.0483 	1
0.049 	1
0.0497 	1
0.0504 	1
0.0511 	1
0.0518 	1
0.0525 	1
0.0532 	1
0.0539 	1
0.0546 	1
0.0553 	1
0.056 	1
0.0567 	1
0.0574 	1
0.0581 	1
0.0588 	1
0.0595 	1
0.0602 	1
0.0609 	1
0.0616 	1
0.0623 	1
0.063 	1
0.0637 	1
0.0644 	1
0.0651 	1
0.0658 	1
0.0665 	1
0.0672 	1
0.0679 	1
0.0686 	1
0.0693 	1
0.07 	1
0.0707 	1
0.0714 	1
0.0721 	1
0.0728 	1
0.0735 	1
0.0742 	1
0.0749 	1
0.0756 	1
0.0763 	1
0.077 	1
0.0777 	1
0.0784 	1
0.0791 	1
0.0798 	1
0.0805 	1
0.0812 	1
0.0819 	1
0.0826 	1
0.0833 	1
0.084 	1
0.0847 	1
0.0854 	1
0.0861 	1
0.0868 	1
0.0875 	1
0.0882 	1
0.0889 	1
0.0896 	1
0.0903 	1
0.091 	1
0.0917 	1
0.0924 	1
0.0931 	1
0.0938 	1
0.0945 	1
0.0952 	1
0.0959 	1
0.0966 	1
0.0973 	1
0.098 	1
0.0987 	1
0.0994 	1
0.1001 	1
0.1008 	1
0.1015 	1
0.1022 	1
0.1029 	1
0.1036 	1
0.1043 	1
0.105 	1
0.1057 	1
0.1064 	1
0.1071 	1
0.1078 	1
0.1085 	1
0.1092 	1
0.1099 	1
0.1106 	1
0.1113 	1
0.112 	1
0.1127 	1
0.1134 	1
0.1141 	1
0.1148 	1
0.1155 	1
0.1162 	1
0.1169 	1
0.1176 	1
0.1183 	1
0.119 	1
0.1197 	1
0.1204 	1
0.1211 	1
0.1218 	1
0.1225 	1
0.1232 	1
0.1239 	1
0.1246 	1
0.1253 	1
0.126 	1
0.1267 	1
0.1274 	1
0.1281 	1
0.1288 	1
0.1295 	1
0.1302 	1
0.1309 	1
0.1316 	1
0.1323 	1
0.133 	1
0.1337 	1
0.1344 	1
0.1351 	1
0.1358 	1
0.1365 	1
0.1372 	1
0.1379 	1
0.1386 	1
0.1393 	1
0.14 	1
0.1407 	1
0.1414 	1
0.1421 	1
0.1428 	1
0.1435 	1
0.1442 	1
0.1449 	1
0.1456 	1
0.1463 	1
0.147 	1
0.1477 	1
0.1484 	1
0.1491 	1
0.1498 	1
0.1505 	1
0.1512 	1
0.1519 	1
0.1526 	1
0.1533 	1
0.154 	1
0.1547 	1
0.1554 	1
0.1561 	1
0.1568 	1
0.1575 	1
0.1582 	1
0.1589 	1
0.1596 	1
0.1603 	1
0.161 	1
0.1617 	1
0.1624 	1
0.1631 	1
0.1638 	1
0.1645 	1
0.1652 	1
0.1659 	1
0.1666 	1
0.1673 	1
0.168 	1
0.1687 	1
0.1694 	1
0.1701 	1
0.1708 	1
0.1715 	1
0.1722 	1
0.1729 	1
0.1736 	1
0.1743 	1
0.175 	1
0.1757 	1
0.1764 	1
0.1771 	1
0.1778 	1
0.1785 	1
0.1792 	1
0.1799 	1
0.1806 	1
0.1813 	1
0.182 	1
0.1827 	1
0.1834 	1
0.1841 	1
0.1848 	1
0.1855 	1
0.1862 	1
0.1869 	1
0.1876 	1
0.1883 	1
0.189 	1
0.1897 	1
0.1904 	1
0.1911 	1
0.1918 	1
0.1925 	1
0.1932 	1
0.1939 	1
0.1946 	1
0.1953 	1
0.196 	1
0.1967 	1
0.1974 	1
0.1981 	1
0.1988 	1
0.1995 	1
0.2002 	1
0.2009 	1
0.2016 	1
0.2023 	1
0.203 	1
0.2037 	1
0.2044 	1
0.2051 	1
0.2058 	1
0.2065 	1
0.2072 	1
0.2079 	1
0.2086 	1
0.2093 	1
0.21 	1
0.2107 	1
0.2114 	1
0.2121 	1
0.2128 	1
0.2135 	1
0.2142 	1
0.2149 	1
0.2156 	1
0.2163 	1
0.217 	1
0.2177 	1
0.2184 	1
0.2191 	1
0.2198 	1
0.2205 	1
0.2212 	1
0.2219 	1
0.2226 	1
0.2233 	1
0.224 	1
0.2247 	1
0.2254 	1
0.2261 	1
0.2268 	1
0.2275 	1
0.2282 	1
0.2289 	1
0.2296 	1
0.2303 	1
0.231 	1
0.2317 	1
0.2324 	1
0.2331 	1
0.2338 	1
0.2345 	1
0.2352 	1
0.2359 	1
0.2366 	1
0.2373 	1
0.238 	1
0.2387 	1
0.2394 	1
0.2401 	1
0.2408 	1
0.2415 	1
0.2422 	0.999999
0.2429 	0.999999
0.2436 	0.999999
0.2443 	0.999999
0.245 	0.999998
0.2457 	0.999998
0.2464 	0.999996
0.2471 	0.999993
0.2478 	0.99999
0.2485 	0.999987
0.2492 	0.999984
0.2499 	0.999981
0.2506 	0.999979
0.2513 	0.999949
0.252 	0.999911
0.2527 	0.999872
0.2534 	0.999834
0.2541 	0.999795
0.2548 	0.999748
0.2555 	0.999722
0.2562 	0.99926
0.2569 	0.998527
0.2576 	0.997793
0.2583 	0.99706
0.259 	0.996327
0.2597 	0.995482
0.2604 	0.994997
0.2611 	0.987918
0.2618 	0.973291
0.2625 	0.958664
0.2632 	0.944037
0.2639 	0.92941
0.2646 	0.912582
0.2653 	0.898397
0.266 	0.875201
0.2667 	0.821698
0.2674 	0.768195
0.2681 	0.714692
0.2688 	0.661188
0.2695 	0.5964
0.2702 	0.514483
0.2709 	0.440364
0.2716 	0.386119
0.2723 	0.331875
0.273 	0.277631
0.2737 	0.223387
0.2744 	0.173278
0.2751 	0.135093
0.2758 	0.0905979
0.2765 	0.074856
0.2772 	0.0591151
0.2779 	0.0433742
0.2786 	0.0276333
0.2793 	0.0132254
0.28 	0.0113474
0.2807 	0.00609448
0.2814 	0.00460474
0.2821 	0.00351646
0.2828 	0.00242819
0.2835 	0.00133991
0.2842 	0.000251639
0.2849 	0.000220131
0.2856 	0.000108921
0.2863 	6.52523e-05
0.287 	4.97823e-05
0.2877 	3.43123e-05
0.2884 	1.88423e-05
0.2891 	3.37232e-06
0.2898 	7.21791e-07
0.2905 	3.94774e-07
0.2912 	1.48847e-07
0.2919 	1.14503e-07
0.2926 	8.01595e-08
0.2933 	4.58164e-08
0.294 	1.14732e-08
0.2947 	3.18116e-10
0.2954 	2.36142e-10
0.2961 	4.50794e-11
0.2968 	3.607e-11
0.2975 	2.70621e-11
0.2982 	1.80542e-11
0.2989 	9.04631e-12
0.2996 	5.03837e-12
0.3003 	5.45e-12
0.301 	5.76654e-12
0.3017 	6.04603e-12
0.3024 	6.32539e-12
0.3031 	6.60475e-12
0.3038 	6.88412e-12
0.3045 	7.15431e-12
0.3052 	7.42073e-12
0.3059 	7.65929e-12
0.3066 	7.65711e-12
0.3073 	7.65501e-12
0.308 	7.65292e-12
0.3087 	7.65083e-12
0.3094 	7.6177e-12
0.3101 	7.50295e-12
0.3108 	7.46567e-12
0.3115 	7.16362e-12
0.3122 	6.86196e-12
0.3129 	6.5603e-12
0.3136 	6.25863e-12
0.3143 	5.94467e-12
0.315 	5.52149e-12
0.3157 	5.20085e-12
0.3164 	4.79586e-12
0.3171 	4.3817e-12
0.3178 	3.96754e-12
0.3185 	3.55337e-12
0.3192 	3.13921e-12
0.3199 	2.68377e-12
0.3206 	2.22565e-12
0.3213 	1.91914e-12
0.322 	1.66188e-12
0.3227 	1.40463e-12
0.3234 	1.14737e-12
0.3241 	8.90121e-13
0.3248 	7.14299e-13
0.3255 	5.10748e-13
0.3262 	3.82261e-13
0.3269 	3.13086e-13
0.3276 	2.43902e-13
0.3283 	1.74719e-13
0.329 	1.05535e-13
0.3297 	7.72947e-14
0.3304 	5.29681e-14
0.3311 	3.07095e-14
0.3318 	2.42739e-14
0.3325 	1.78323e-14
0.3332 	1.13906e-14
0.3339 	4.94897e-15
0.3346 	2.28029e-15
0.3353 	1.89739e-15
0.336 	6.7162e-16
0.3367 	5.27747e-16
0.3374 	3.83449e-16
0.3381 	2.39151e-16
0.3388 	9.48535e-17
0.3395 	1.24874e-17
0.3402 	1.74079e-17
0.3409 	2.41382e-18
0.3416 	1.909e-18
0.3423 	1.40079e-18
0.343 	8.9258e-19
0.3437 	3.84371e-19
0.3444 	8.8217e-21
0.3451 	2.64903e-20
0.3458 	9.20889e-22
0.3465 	7.34595e-22
0.3472 	5.45945e-22
0.3479 	3.57294e-22
0.3486 	1.68643e-22
0.3493 	5.07025e-25
0.35 	4.07059e-24
0.3507 	4.34269e-25
0.3514 	3.71825e-26
0.3521 	2.79697e-26
0.3528 	1.87569e-26
0.3535 	9.54406e-27
0.3542 	3.31258e-28
0.3549 	1.56265e-28
0.3556 	4.20153e-29
0.3563 	1.78059e-30
0.357 	1.35441e-30
0.3577 	9.28221e-31
0.3584 	5.02034e-31
0.3591 	7.58469e-32
0.3598 	5.7831e-33
0.3605 	2.79892e-33
0.3612 	8.11626e-35
0.3619 	6.23978e-35
0.3626 	4.36032e-35
0.3633 	2.48085e-35
0.364 	6.01387e-36
0.3647 	2.08817e-37
0.3654 	1.6369e-37
0.3661 	3.55705e-39
0.3668 	2.76289e-39
0.3675 	1.96483e-39
0.3682 	1.16676e-39
0.3689 	3.68699e-40
0.3696 	7.30608e-42
0.3703 	9.01147e-42
0.371 	1.51874e-43
0.3717 	1.191e-43
0.3724 	8.60538e-44
0.3731 	5.30071e-44
0.3738 	1.99605e-44
0.3745 	2.39712e-46
0.3752 	4.75621e-46
0.3759 	6.39602e-48
0.3766 	5.06067e-48
0.3773 	3.70973e-48
0.378 	2.35879e-48
0.3787 	1.00784e-48
0.3794 	6.90152e-51
0.3801 	2.40816e-50
0.3808 	2.67825e-52
0.3815 	2.13678e-52
0.3822 	1.5872e-52
0.3829 	1.03762e-52
0.3836 	4.88047e-53
0.3843 	1.4589e-55
0.385 	1.16938e-54
0.3857 	1.28331e-55
0.3864 	8.98206e-57
0.3871 	6.75329e-57
0.3878 	4.52452e-57
0.3885 	2.29575e-57
0.3892 	6.69781e-59
0.3899 	4.24419e-59
0.3906 	1.15105e-59
0.3913 	3.74832e-61
0.392 	2.84989e-61
0.3927 	1.95145e-61
0.3934 	1.05302e-61
0.3941 	1.54581e-62
0.3948 	1.48223e-63
0.3955 	7.20917e-64
0.3962 	1.54599e-65
0.3969 	1.18807e-65
0.3976 	8.29574e-66
0.3983 	4.71081e-66
0.399 	1.12587e-66
0.3997 	4.96936e-68
0.4004 	3.9123e-68
0.4011 	6.28574e-70
0.4018 	4.88036e-70
0.4025 	3.46824e-70
0.4032 	2.05612e-70
0.4039 	6.44003e-71
0.4046 	1.58631e-72
0.4053 	1.96412e-72
0.406 	2.51956e-74
0.4067 	1.975e-74
0.4074 	1.42609e-74
0.4081 	8.77183e-75
0.4088 	3.28275e-75
0.4095 	4.72043e-77
0.4102 	9.38928e-77
0.4109 	9.97193e-79
0.4116 	7.88645e-79
0.4123 	5.7778e-79
0.413 	3.66915e-79
0.4137 	1.5605e-79
0.4144 	1.24228e-81
0.4151 	4.33577e-81
0.4158 	3.90586e-83
0.4165 	3.11473e-83
0.4172 	2.31238e-83
0.4179 	1.51004e-83
0.4186 	7.07701e-84
0.4193 	2.43847e-86
0.42 	1.94839e-85
0.4207 	2.20048e-86
0.4214 	1.21932e-87
0.4221 	9.1631e-88
0.4228 	6.13302e-88
0.4235 	3.10293e-88
0.4242 	7.28493e-90
0.4249 	6.64405e-90
0.4256 	1.82253e-90
0.4263 	4.73787e-92
0.427 	3.60061e-92
0.4277 	2.46335e-92
0.4284 	1.32609e-92
0.4291 	1.88831e-93
0.4298 	2.20233e-94
0.4305 	1.07764e-94
0.4312 	1.82779e-96
0.4319 	1.404e-96
0.4326 	9.7958e-97
0.4333 	5.55159e-97
0.434 	1.30738e-97
0.4347 	7.04139e-99
0.4354 	5.56318e-99
0.4361 	7.00162e-101
0.4368 	5.43357e-101
0.4375 	3.85864e-101
0.4382 	2.28371e-101
0.4389 	7.08779e-102
0.4396 	2.14504e-103
0.4403 	2.66132e-103
0.441 	2.66398e-105
0.4417 	2.0871e-105
0.4424 	1.50606e-105
0.4431 	9.25029e-106
0.4438 	3.43995e-106
0.4445 	6.08513e-108
0.4452 	1.21122e-107
0.4459 	1.00698e-109
0.4466 	7.95925e-110
0.4473 	5.82772e-110
0.448 	3.69618e-110
0.4487 	1.56464e-110
0.4494 	1.52616e-112
0.4501 	5.31939e-112
0.4508 	3.78502e-114
0.4515 	3.01642e-114
0.4522 	2.2382e-114
0.4529 	1.45998e-114
0.4536 	6.8176e-115
0.4543 	2.86585e-117
0.455 	2.27369e-116
0.4557 	2.64421e-117
0.4564 	1.13849e-118
0.4571 	8.55147e-119
0.4578 	5.71802e-119
0.4585 	2.88457e-119
0.4592 	5.11255e-121
0.4599 	7.37852e-121
0.4606 	2.04499e-121
0.4613 	3.78793e-123
0.462 	2.75514e-123
0.4627 	1.72234e-123
0.4634 	6.89551e-124
0.4641 	-3.43242e-124
0.4648 	-1.13071e-123
0.4655 	-8.13338e-124
0.4662 	-2.07636e-124
0.4669 	-1.70927e-124
0.4676 	-1.70705e-124
0.4683 	-1.70483e-124
0.469 	-1.7026e-124
0.4697 	-3.49767e-124
0.4704 	-3.13036e-124
0.4711 	-8.69235e-125
0.4718 	-4.66739e-125
0.4725 	-4.65317e-125
0.4732 	-4.63896e-125
0.4739 	-4.62474e-125
0.4746 	-8.50249e-125
0.4753 	-9.49953e-125
0.476 	-3.04153e-125
0.4767 	-1.16736e-125
0.4774 	-1.16286e-125
0.4781 	-1.15835e-125
0.4788 	-1.15384e-125
0.4795 	-1.87294e-125
0.4802 	-2.61937e-125
0.4809 	-9.42247e-126
0.4816 	-2.77479e-126
0.4823 	-2.76292e-126
0.483 	-2.75106e-126
0.4837 	-2.73919e-126
0.4844 	-3.85699e-126
0.4851 	-6.81141e-126
0.4858 	-2.68706e-126
0.4865 	-6.34889e-127
0.4872 	-6.32017e-127
0.4879 	-6.29146e-127
0.4886 	-6.26275e-127
0.4893 	-7.47043e-127
0.49 	-1.69312e-126
0.4907 	-7.46926e-127
0.4914 	-1.40536e-127
0.4921 	-1.39875e-127
0.4928 	-1.39214e-127
0.4935 	-1.38553e-127
0.4942 	-1.37892e-127
0.4949 	-3.44815e-127
0.4956 	-1.95227e-127
0.4963 	-3.01651e-128
0.497 	-3.00185e-128
0.4977 	-2.9872e-128
0.4984 	-2.97254e-128
0.4991 	-2.95789e-128
0.4998 	-6.75847e-128
0.5005 	-4.83203e-128
0.5012 	-8.82585e-129
0.5019 	-6.25537e-129
0.5026 	-6.2239e-129
0.5033 	-6.19242e-129
0.504 	-6.16094e-129
0.5047 	-1.2746e-128
0.5054 	-1.14074e-128
0.5061 	-2.87268e-129
0.5068 	-1.26695e-129
0.5075 	-1.26038e-129
0.5082 	-1.25382e-129
0.5089 	-1.24726e-129
0.5096 	-2.31051e-129
0.5103 	-2.58136e-129
0.511 	-7.94509e-130
0.5117 	-2.49617e-130
0.5124 	-2.48287e-130
0.5131 	-2.46956e-130
0.5138 	-2.45625e-130
0.5145 	-4.018e-130
0.5152 	-5.61929e-130
0.5159 	-1.99038e-130
0.5166 	-4.78795e-131
0.5173 	-4.76171e-131
0.518 	-4.73546e-131
0.5187 	-4.70921e-131
0.5194 	-6.68204e-131
0.5201 	-1.18007e-130
0.5208 	-4.64338e-131
0.5215 	-8.94792e-132
0.5222 	-8.89749e-132
0.5229 	-8.84707e-132
0.5236 	-8.79664e-132
0.5243 	-1.05721e-131
0.525 	-2.3962e-131
0.5257 	-1.057e-131
0.5264 	-1.6305e-132
0.5271 	-1.62106e-132
0.5278 	-1.61162e-132
0.5285 	-1.60218e-132
0.5292 	-1.59274e-132
0.5299 	-4.01669e-132
0.5306 	-2.27405e-132
0.5313 	-2.89916e-133
0.532 	-2.88192e-133
0.5327 	-2.86468e-133
0.5334 	-2.84744e-133
0.5341 	-2.8302e-133
0.5348 	-6.52012e-133
0.5355 	-4.66149e-133
0.5362 	-7.59117e-134
0.5369 	-5.00303e-134
0.5376 	-4.97231e-134
0.5383 	-4.94158e-134
0.539 	-4.91086e-134
0.5397 	-1.02411e-133
0.5404 	-9.16542e-134
0.5411 	-2.19211e-134
0.5418 	-8.48709e-135
0.5425 	-8.43362e-135
0.5432 	-8.38015e-135
0.5439 	-8.32668e-135
0.5446 	-1.55444e-134
0.5453 	-1.73664e-134
0.546 	-5.21605e-135
0.5467 	-1.40784e-135
0.5474 	-1.39875e-135
0.5481 	-1.38965e-135
0.5488 	-1.38056e-135
0.5495 	-2.27524e-135
0.5502 	-3.18197e-135
0.5509 	-1.11575e-135
0.5516 	-2.28506e-136
0.5523 	-2.26994e-136
0.553 	-2.25482e-136
0.5537 	-2.23969e-136
0.5544 	-3.2009e-136
0.5551 	-5.65285e-136
0.5558 	-2.22066e-136
0.5565 	-3.63125e-137
0.5572 	-3.60665e-137
0.5579 	-3.58204e-137
0.5586 	-3.55743e-137
0.5593 	-4.30516e-137
0.56 	-9.75761e-137
0.5607 	-4.30416e-137
0.5614 	-5.65297e-138
0.5621 	-5.61377e-138
0.5628 	-5.57457e-138
0.5635 	-5.53538e-138
0.5642 	-5.49618e-138
0.5649 	-1.39697e-137
0.5656 	-7.90887e-138
0.5663 	-8.6256e-139
0.567 	-8.56445e-139
0.5677 	-8.5033e-139
0.5684 	-8.44214e-139
0.5691 	-8.38099e-139
0.5698 	-1.94545e-138
0.5705 	-1.39087e-138
0.5712 	-2.07591e-139
0.5719 	-1.28131e-139
0.5726 	-1.27196e-139
0.5733 	-1.26261e-139
0.574 	-1.25326e-139
0.5747 	-2.63269e-139
0.5754 	-2.35614e-139
0.5761 	-5.42927e-140
0.5768 	-1.88069e-140
0.5775 	-1.86668e-140
0.5782 	-1.85267e-140
0.5789 	-1.83866e-140
0.5796 	-3.45665e-140
0.5803 	-3.86177e-140
0.581 	-1.13994e-140
0.5817 	-2.70946e-141
0.5824 	-2.68887e-141
0.5831 	-2.66827e-141
0.5838 	-2.64767e-141
0.5845 	-4.39313e-141
0.5852 	-6.14375e-141
0.5859 	-2.13904e-141
0.5866 	-3.83292e-142
0.5873 	-3.80321e-142
0.588 	-3.7735e-142
0.5887 	-3.74378e-142
0.5894 	-5.38538e-142
0.5901 	-9.51041e-142
0.5908 	-3.73388e-142
0.5915 	-5.32633e-143
0.5922 	-5.28426e-143
0.5929 	-5.24219e-143
0.5936 	-5.20011e-143
0.5943 	-6.33247e-143
0.595 	-1.4352e-142
0.5957 	-6.3307e-143
0.5964 	-7.27353e-144
0.5971 	-7.21502e-144
0.5978 	-7.15651e-144
0.5985 	-7.09801e-144
0.5992 	-7.07739e-144
0.5999 	-1.80198e-143
0.6006 	-1.02017e-143
0.6013 	-9.76432e-145
0.602 	-9.68438e-145
0.6027 	-9.60444e-145
0.6034 	-9.5245e-145
0.6041 	-9.44456e-145
0.6048 	-2.20731e-144
0.6055 	-1.57806e-144
0.6062 	-2.19849e-145
0.6069 	-1.27833e-145
0.6076 	-1.2676e-145
0.6083 	-1.25686e-145
0.609 	-1.24613e-145
0.6097 	-2.63484e-145
0.6104 	-2.35803e-145
0.6111 	-5.28187e-146
0.6118 	-1.66e-146
0.6125 	-1.64583e-146
0.6132 	-1.63165e-146
0.6139 	-1.61748e-146
0.6146 	-3.05985e-146
0.6153 	-3.4184e-146
0.616 	-9.95999e-147
0.6167 	-2.12137e-147
0.6174 	-2.10296e-147
0.6181 	-2.08455e-147
0.6188 	-2.06614e-147
0.6195 	-3.44866e-147
0.6202 	-4.82281e-147
0.6209 	-1.6703e-147
0.6216 	-2.66883e-148
0.6223 	-2.64529e-148
0.623 	-2.62176e-148
0.6237 	-2.59823e-148
0.6244 	-3.75869e-148
0.6251 	-6.63753e-148
0.6258 	-2.60591e-148
0.6265 	-3.30647e-149
0.6272 	-3.27686e-149
0.6279 	-3.24725e-149
0.6286 	-3.21764e-149
0.6293 	-3.93935e-149
0.63 	-8.9278e-149
0.6307 	-3.93803e-149
0.6314 	-4.0355e-150
0.6321 	-3.99881e-150
0.6328 	-3.96212e-150
0.6335 	-3.92543e-150
0.6342 	-3.93391e-150
0.6349 	-1.00155e-149
0.6356 	-5.6701e-150
0.6363 	-4.85357e-151
0.637 	-4.80878e-151
0.6377 	-4.76399e-151
0.6384 	-4.7192e-151
0.6391 	-4.67441e-151
0.6398 	-1.09882e-150
0.6405 	-7.8556e-151
0.6412 	-1.03519e-151
0.6419 	-5.7005e-152
0.6426 	-5.64661e-152
0.6433 	-5.59272e-152
0.644 	-5.53883e-152
0.6447 	-1.17756e-151
0.6454 	-1.05383e-151
0.6461 	-2.30914e-152
0.6468 	-6.66351e-153
0.6475 	-6.59959e-153
0.6482 	-6.53567e-153
0.6489 	-6.47175e-153
0.6496 	-1.23058e-152
0.6503 	-1.37475e-152
0.651 	-3.96591e-153
0.6517 	-7.68317e-154
0.6524 	-7.60839e-154
0.6531 	-7.53361e-154
0.6538 	-7.45883e-154
0.6545 	-1.25094e-153
0.6552 	-1.74933e-153
0.6559 	-6.03479e-154
0.6566 	-8.74088e-155
0.6573 	-8.65457e-155
0.658 	-8.56827e-155
0.6587 	-8.48196e-155
0.6594 	-1.23247e-154
0.6601 	-2.17631e-154
0.6608 	-8.54433e-155
0.6615 	-9.81453e-156
0.6622 	-9.71623e-156
0.6629 	-9.61792e-156
0.6636 	-9.51962e-156
0.6643 	-1.17021e-155
0.665 	-2.65184e-155
0.6657 	-1.16974e-155
0.6664 	-1.08791e-156
0.6671 	-1.07686e-156
0.6678 	-1.06581e-156
0.6685 	-1.05475e-156
0.6692 	-1.06092e-156
0.6699 	-2.70071e-156
0.6706 	-1.52896e-156
0.6713 	-1.19077e-157
0.672 	-1.17849e-157
0.6727 	-1.16622e-157
0.6734 	-1.15395e-157
0.6741 	-1.14167e-157
0.6748 	-2.69519e-157
0.6755 	-1.92683e-157
0.6762 	-2.42824e-158
0.6769 	-1.27372e-158
0.6776 	-1.26026e-158
0.6783 	-1.24681e-158
0.679 	-1.23335e-158
0.6797 	-2.63209e-158
0.6804 	-2.35549e-158
0.6811 	-5.0739e-159
0.6818 	-1.35972e-159
0.6825 	-1.34514e-159
0.6832 	-1.33057e-159
0.6839 	-1.31599e-159
0.6846 	-2.5106e-159
0.6853 	-2.80462e-159
0.686 	-8.02996e-160
0.6867 	-1.43371e-160
0.6874 	-1.41811e-160
0.6881 	-1.40251e-160
0.6888 	-1.38692e-160
0.6895 	-2.3325e-160
0.6902 	-3.26159e-160
0.6909 	-1.12198e-160
0.6916 	-1.49303e-161
0.6923 	-1.47654e-161
0.693 	-1.46006e-161
0.6937 	-1.44358e-161
0.6944 	-2.10221e-161
0.6951 	-3.71175e-161
0.6958 	-1.45736e-161
0.6965 	-2.72685e-162
0.6972 	-2.71125e-162
0.6979 	-2.69565e-162
0.6986 	-2.68005e-162
0.6993 	-3.3162e-162
0.7 	-7.51565e-162
