0 	1
0.0007 	1
0.0014 	1
0.0021 	1
0.0028 	1
0.0035 	1
0.0042 	1
0.0049 	1
0.0056 	1
0.0063 	1
0.007 	1
0.0077 	1
0.0084 	1
0.0091 	1
0.0098 	1
0.0105 	1
0.0112 	1
0.0119 	1
0.0126 	1
0.0133 	1
0.014 	1
0.0147 	1
0.0154 	1
0.0161 	1
0.0168 	1
0.0175 	1
0.0182 	1
0.0189 	1
0.0196 	1
0.0203 	1
0.021 	1
0.0217 	1
0.0224 	1
0.0231 	1
0.0238 	1
0.0245 	1
0.0252 	1
0.0259 	1
0.0266 	1
0.0273 	1
0.028 	1
0.0287 	1
0.0294 	1
0.0301 	1
0.0308 	1
0.0315 	1
0.0322 	1
0.0329 	1
0.0336 	1
0.0343 	1
0.035 	1
0.0357 	1
0.0364 	1
0.0371 	1
0.0378 	1
0.0385 	1
0.0392 	1
0.0399 	1
0.0406 	1
0.0413 	1
0.042 	1
0.0427 	1
0.0434 	1
0.0441 	1
0.0448 	1
0.0455 	1
0.0462 	1
0.0469 	1
0.0476 	1
0.0483 	1
0.049 	1
0.0497 	1
0.0504 	1
0.0511 	1
0.0518 	1
0.0525 	1
0.0532 	1
0.0539 	1
0.0546 	1
0.0553 	1
0.056 	1
0.0567 	1
0.0574 	1
0.0581 	1
0.0588 	1
0.0595 	1
0.0602 	1
0.0609 	1
0.0616 	1
0.0623 	1
0.063 	1
0.0637 	1
0.0644 	1
0.0651 	1
0.0658 	1
0.0665 	1
0.0672 	1
0.0679 	1
0.0686 	1
0.0693 	1
0.07 	1
0.0707 	1
0.0714 	1
0.0721 	1
0.0728 	1
0.0735 	1
0.0742 	1
0.0749 	1
0.0756 	1
0.0763 	1
0.077 	1
0.0777 	1
0.0784 	1
0.0791 	1
0.0798 	1
0.0805 	1
0.0812 	1
0.0819 	1
0.0826 	1
0.0833 	1
0.084 	1
0.0847 	1
0.0854 	1
0.0861 	1
0.0868 	1
0.0875 	1
0.0882 	1
0.0889 	1
0.0896 	1
0.0903 	1
0.091 	1
0.0917 	1
0.0924 	1
0.0931 	1
0.0938 	1
0.0945 	1
0.0952 	1
0.0959 	1
0.0966 	1
0.0973 	1
0.098 	1
0.0987 	1
0.0994 	1
0.1001 	1
0.1008 	1
0.1015 	1
0.1022 	1
0.1029 	1
0.1036 	1
0.1043 	1
0.105 	1
0.1057 	1
0.1064 	1
0.1071 	1
0.1078 	1
0.1085 	1
0.1092 	1
0.1099 	1
0.1106 	1
0.1113 	1
0.112 	1
0.1127 	1
0.1134 	1
0.1141 	1
0.1148 	1
0.1155 	1
0.1162 	1
0.1169 	1
0.1176 	1
0.1183 	1
0.119 	1
0.1197 	1
0.1204 	1
0.1211 	1
0.1218 	1
0.1225 	1
0.1232 	1
0.1239 	1
0.1246 	1
0.1253 	1
0.126 	1
0.1267 	1
0.1274 	1
0.1281 	1
0.1288 	1
0.1295 	1
0.1302 	1
0.1309 	1
0.1316 	1
0.1323 	1
0.133 	1
0.1337 	1
0.1344 	1
0.1351 	1
0.1358 	1
0.1365 	1
0.1372 	1
0.1379 	1
0.1386 	1
0.1393 	1
0.14 	1
0.1407 	1
0.1414 	1
0.1421 	1
0.1428 	1
0.1435 	1
0.1442 	1
0.1449 	1
0.1456 	1
0.1463 	1
0.147 	1
0.1477 	1
0.1484 	1
0.1491 	1
0.1498 	1
0.1505 	1
0.1512 	1
0.1519 	1
0.1526 	1
0.1533 	1
0.154 	1
0.1547 	1
0.1554 	1
0.1561 	1
0.1568 	1
0.1575 	1
0.1582 	1
0.1589 	1
0.1596 	1
0.1603 	1
0.161 	1
0.1617 	1
0.1624 	1
0.1631 	1
0.1638 	1
0.1645 	1
0.1652 	1
0.1659 	1
0.1666 	1
0.1673 	1
0.168 	1
0.1687 	1
0.1694 	1
0.1701 	1
0.1708 	1
0.1715 	1
0.1722 	1
0.1729 	1
0.1736 	1
0.1743 	1
0.175 	1
0.1757 	1
0.1764 	1
0.1771 	1
0.1778 	1
0.1785 	1
0.1792 	1
0.1799 	1
0.1806 	1
0.1813 	1
0.182 	1
0.1827 	1
0.1834 	1
0.1841 	1
0.1848 	1
0.1855 	1
0.1862 	1
0.1869 	1
0.1876 	1
0.1883 	1
0.189 	1
0.1897 	1
0.1904 	1
0.1911 	1
0.1918 	1
0.1925 	1
0.1932 	1
0.1939 	1
0.1946 	1
0.1953 	1
0.196 	1
0.1967 	1
0.1974 	1
0.1981 	1
0.1988 	1
0.1995 	1
0.2002 	1
0.2009 	1
0.2016 	1
0.2023 	1
0.203 	1
0.2037 	1
0.2044 	1
0.2051 	1
0.2058 	0.999996
0.2065 	0.999989
0.2072 	0.999983
0.2079 	0.999977
0.2086 	0.99997
0.2093 	0.999964
0.21 	0.999956
0.2107 	0.999629
0.2114 	0.998972
0.2121 	0.998316
0.2128 	0.99766
0.2135 	0.997004
0.2142 	0.996348
0.2149 	0.995574
0.2156 	0.990656
0.2163 	0.978238
0.217 	0.965825
0.2177 	0.953412
0.2184 	0.940998
0.2191 	0.928585
0.2198 	0.914545
0.2205 	0.888156
0.2212 	0.833724
0.2219 	0.779297
0.2226 	0.724871
0.2233 	0.670445
0.224 	0.616019
0.2247 	0.559399
0.2254 	0.477535
0.2261 	0.420612
0.2268 	0.363685
0.2275 	0.306758
0.2282 	0.24983
0.2289 	0.192902
0.2296 	0.135974
0.2303 	0.0999425
0.231 	0.0834068
0.2317 	0.0685171
0.2324 	0.0536253
0.2331 	0.0387334
0.2338 	0.0238416
0.2345 	0.00894976
0.2352 	0.00461621
0.2359 	0.00371044
0.2366 	0.00305904
0.2373 	0.00240745
0.238 	0.00175586
0.2387 	0.00110427
0.2394 	0.00045268
0.2401 	0.000187438
0.2408 	0.000147022
0.2415 	0.000122158
0.2422 	9.72854e-05
0.2429 	7.24131e-05
0.2436 	4.75408e-05
0.2443 	2.26685e-05
0.245 	9.15754e-06
0.2457 	6.98807e-06
0.2464 	5.83437e-06
0.2471 	4.68022e-06
0.2478 	3.52607e-06
0.2485 	2.37193e-06
0.2492 	1.21778e-06
0.2499 	4.42038e-07
0.2506 	3.32379e-07
0.2513 	2.78602e-07
0.252 	2.24806e-07
0.2527 	1.7101e-07
0.2534 	1.17213e-07
0.2541 	6.34171e-08
0.2548 	2.03904e-08
0.2555 	1.5048e-08
0.2562 	1.26562e-08
0.2569 	1.02642e-08
0.2576 	7.87216e-09
0.2583 	5.48012e-09
0.259 	3.08809e-09
0.2597 	8.68086e-10
0.2604 	6.31751e-10
0.2611 	5.3463e-10
0.2618 	4.37542e-10
0.2625 	3.40462e-10
0.2632 	2.43382e-10
0.2639 	1.46303e-10
0.2646 	4.92232e-11
0.2653 	3.34328e-11
0.266 	2.8397e-11
0.2667 	2.39443e-11
0.2674 	1.94932e-11
0.2681 	1.50421e-11
0.2688 	1.05911e-11
0.2695 	6.13999e-12
0.2702 	4.45866e-12
0.2709 	3.8397e-12
0.2716 	3.34955e-12
0.2723 	2.85975e-12
0.273 	2.36994e-12
0.2737 	1.88013e-12
0.2744 	1.39033e-12
0.2751 	1.10336e-12
0.2758 	9.64928e-13
0.2765 	8.58629e-13
0.2772 	7.52432e-13
0.2779 	6.46236e-13
0.2786 	5.40039e-13
0.2793 	4.33842e-13
0.28 	3.55179e-13
0.2807 	3.10593e-13
0.2814 	2.76786e-13
0.2821 	2.43018e-13
0.2828 	2.09249e-13
0.2835 	1.75481e-13
0.2842 	1.41712e-13
0.2849 	1.13526e-13
0.2856 	9.7117e-14
0.2863 	8.56576e-14
0.287 	7.4214e-14
0.2877 	6.27705e-14
0.2884 	5.13269e-14
0.2891 	3.98833e-14
0.2898 	2.9763e-14
0.2905 	2.46129e-14
0.2912 	2.14628e-14
0.2919 	1.83175e-14
0.2926 	1.51727e-14
0.2933 	1.20278e-14
0.294 	8.88288e-15
0.2947 	5.89716e-15
0.2954 	4.73291e-15
0.2961 	4.1001e-15
0.2968 	3.46815e-15
0.2975 	2.83644e-15
0.2982 	2.20472e-15
0.2989 	1.57301e-15
0.2996 	9.41296e-16
0.3003 	7.26483e-16
0.301 	6.2155e-16
0.3017 	5.24395e-16
0.3024 	4.27295e-16
0.3031 	3.30196e-16
0.3038 	2.33096e-16
0.3045 	1.35996e-16
0.3052 	9.66275e-17
0.3059 	8.11042e-17
0.3066 	6.83899e-17
0.3073 	5.56834e-17
0.308 	4.29768e-17
0.3087 	3.02703e-17
0.3094 	1.75637e-17
0.3101 	1.12894e-17
0.3108 	9.2776e-18
0.3115 	7.80879e-18
0.3122 	6.34081e-18
0.3129 	4.87283e-18
0.3136 	3.40485e-18
0.3143 	1.93687e-18
0.315 	1.07917e-18
0.3157 	8.67143e-19
0.3164 	7.28257e-19
0.3171 	5.89435e-19
0.3178 	4.50613e-19
0.3185 	3.1179e-19
0.3192 	1.72968e-19
0.3199 	7.80237e-20
0.3206 	6.15962e-20
0.3213 	5.17019e-20
0.322 	4.18088e-20
0.3227 	3.19157e-20
0.3234 	2.20226e-20
0.3241 	1.21295e-20
0.3248 	4.23035e-21
0.3255 	3.29502e-21
0.3262 	2.76745e-21
0.3269 	2.23958e-21
0.3276 	1.71169e-21
0.3283 	1.1838e-21
0.329 	6.55908e-22
0.3297 	1.68193e-22
0.3304 	1.29897e-22
0.3311 	1.09224e-22
0.3318 	8.85265e-23
0.3325 	6.78216e-23
0.3332 	4.71167e-23
0.3339 	2.64118e-23
0.3346 	5.7069e-24
0.3353 	3.52927e-24
0.336 	2.94182e-24
0.3367 	2.39041e-24
0.3374 	1.83842e-24
0.3381 	1.28643e-24
0.3388 	7.34445e-25
0.3395 	1.82455e-25
0.3402 	5.9032e-26
0.3409 	4.87224e-26
0.3416 	3.97343e-26
0.3423 	3.07239e-26
0.343 	2.17136e-26
0.3437 	1.27032e-26
0.3444 	3.69285e-27
0.3451 	5.16946e-28
0.3458 	4.26516e-28
0.3465 	3.49478e-28
0.3472 	2.72046e-28
0.3479 	1.94615e-28
0.3486 	1.17183e-28
0.3493 	3.97512e-29
0.35 	1.86764e-30
0.3507 	1.55337e-30
0.3514 	1.28003e-30
0.3521 	1.00401e-30
0.3528 	7.27993e-31
0.3535 	4.51976e-31
0.3542 	1.7596e-31
0.3549 	1.8509e-33
0.3556 	1.60093e-33
0.3563 	1.32771e-33
0.357 	1.04963e-33
0.3577 	7.71543e-34
0.3584 	4.93457e-34
0.3591 	2.15371e-34
0.3598 	2.9245e-37
0.3605 	2.67575e-37
0.3612 	2.23375e-37
0.3619 	1.78011e-37
0.3626 	1.32558e-37
0.3633 	8.71044e-38
0.364 	4.1651e-38
0.3647 	1.33363e-41
0.3654 	1.26791e-41
0.3661 	1.06327e-41
0.3668 	8.54091e-42
0.3675 	6.43677e-42
0.3682 	4.33263e-42
0.3689 	2.22849e-42
0.3696 	1.24356e-43
0.3703 	9.01956e-46
0.371 	7.58539e-46
0.3717 	6.1382e-46
0.3724 	4.67737e-46
0.3731 	3.21654e-46
0.3738 	1.7557e-46
0.3745 	2.94872e-47
0.3752 	8.54132e-50
0.3759 	7.19837e-50
0.3766 	5.86609e-50
0.3773 	4.51586e-50
0.378 	3.16563e-50
0.3787 	1.81541e-50
0.3794 	4.6518e-51
0.3801 	8.96117e-54
0.3808 	7.56837e-54
0.3815 	6.20905e-54
0.3822 	4.8253e-54
0.3829 	3.44156e-54
0.3836 	2.05781e-54
0.3843 	6.74063e-55
0.385 	9.44297e-58
0.3857 	7.99149e-58
0.3864 	6.59803e-58
0.3871 	5.17288e-58
0.3878 	3.74773e-58
0.3885 	2.32259e-58
0.3892 	8.97442e-59
0.3899 	9.3735e-62
0.3906 	8.23394e-62
0.3913 	6.83947e-62
0.392 	5.40631e-62
0.3927 	3.97315e-62
0.3934 	2.53999e-62
0.3941 	1.10683e-62
0.3948 	8.97513e-66
0.3955 	8.18177e-66
0.3962 	6.83226e-66
0.3969 	5.44449e-66
0.3976 	4.05378e-66
0.3983 	2.66306e-66
0.399 	1.27235e-66
0.3997 	8.23717e-70
0.4004 	7.79181e-70
0.4011 	6.53656e-70
0.4018 	5.25078e-70
0.4025 	3.95668e-70
0.4032 	2.66257e-70
0.4039 	1.36847e-70
0.4046 	7.43701e-72
0.4053 	7.09797e-74
0.406 	5.973e-74
0.4067 	4.83442e-74
0.4074 	3.68338e-74
0.4081 	2.53234e-74
0.4088 	1.3813e-74
0.4095 	2.30268e-75
0.4102 	6.1786e-78
0.4109 	5.2105e-78
0.4116 	4.24724e-78
0.4123 	3.26917e-78
0.413 	2.29109e-78
0.4137 	1.31301e-78
0.4144 	3.34934e-79
0.4151 	3.12701e-82
0.4158 	2.18301e-82
0.4165 	1.16762e-82
0.4172 	3.66315e-83
0.4179 	-4.34994e-83
0.4186 	-1.2363e-82
0.4193 	-2.03761e-82
0.42 	-2.56388e-82
0.4207 	-1.72391e-82
0.4214 	-5.81888e-83
0.4221 	-5.82825e-83
0.4228 	-5.83761e-83
0.4235 	-5.84698e-83
0.4242 	-5.85635e-83
0.4249 	-6.05548e-83
0.4256 	-4.51673e-83
0.4263 	-9.15493e-84
0.427 	-8.65268e-84
0.4277 	-8.15044e-84
0.4284 	-7.64819e-84
0.4291 	-7.14595e-84
0.4298 	-6.87276e-84
0.4305 	-5.82387e-84
0.4312 	-1.29329e-84
0.4319 	-8.84103e-85
0.4326 	-7.91952e-85
0.4333 	-6.998e-85
0.434 	-6.07649e-85
0.4347 	-5.26457e-85
0.4354 	-5.01105e-85
0.4361 	-1.49541e-85
0.4368 	-6.72712e-86
0.4375 	-5.84455e-86
0.4382 	-4.96198e-86
0.4389 	-4.07941e-86
0.4396 	-3.19684e-86
0.4403 	-3.14933e-86
0.441 	-1.20312e-86
0.4417 	-4.1005e-87
0.4424 	-3.50083e-87
0.4431 	-2.90116e-87
0.4438 	-2.30149e-87
0.4445 	-1.70182e-87
0.4452 	-1.59798e-87
0.4459 	-7.58163e-88
0.4466 	-2.11122e-88
0.4473 	-1.78472e-88
0.448 	-1.45822e-88
0.4487 	-1.13171e-88
0.4494 	-8.05206e-89
0.4501 	-7.06164e-89
0.4508 	-3.99303e-89
0.4515 	-9.49702e-90
0.4522 	-7.9846e-90
0.4529 	-6.47217e-90
0.4536 	-4.95974e-90
0.4543 	-3.44732e-90
0.455 	-2.78397e-90
0.4557 	-1.82441e-90
0.4564 	-3.8145e-91
0.4571 	-3.20049e-91
0.4578 	-2.58647e-91
0.4585 	-1.97245e-91
0.4592 	-1.35844e-91
0.4599 	-9.90812e-92
0.4606 	-7.47949e-92
0.4613 	-1.40261e-92
0.462 	-1.17931e-92
0.4627 	-9.55998e-93
0.4634 	-7.3269e-93
0.4641 	-5.09382e-93
0.4648 	-3.41206e-93
0.4655 	-2.9181e-93
0.4662 	-6.53316e-94
0.4669 	-4.21161e-94
0.4676 	-3.45365e-94
0.4683 	-2.69569e-94
0.469 	-1.93774e-94
0.4697 	-1.252e-94
0.4704 	-1.19727e-94
0.4711 	-3.59871e-95
0.4718 	-1.60011e-95
0.4725 	-1.34027e-95
0.4732 	-1.08043e-95
0.4739 	-8.20591e-96
0.4746 	-5.60751e-96
0.4753 	-5.47086e-96
0.476 	-2.09533e-96
0.4767 	-7.16166e-97
0.4774 	-6.14957e-97
0.4781 	-5.13747e-97
0.4788 	-4.12538e-97
0.4795 	-3.11328e-97
0.4802 	-2.94045e-97
0.4809 	-1.3905e-97
0.4816 	-3.816e-98
0.4823 	-3.33166e-98
0.483 	-2.84731e-98
0.4837 	-2.36297e-98
0.4844 	-1.87863e-98
0.4851 	-1.75319e-98
0.4858 	-9.79505e-99
0.4865 	-2.2126e-99
0.4872 	-1.94734e-99
0.4879 	-1.68209e-99
0.4886 	-1.41683e-99
0.4893 	-1.15157e-99
0.49 	-1.08664e-99
0.4907 	-6.82427e-100
0.4914 	-1.29446e-100
0.4921 	-1.14417e-100
0.4928 	-9.93892e-101
0.4935 	-8.43609e-101
0.4942 	-6.93326e-101
0.4949 	-6.74605e-101
0.4956 	-4.57388e-101
0.4963 	-7.40282e-102
0.497 	-6.56871e-102
0.4977 	-5.7346e-102
0.4984 	-4.90049e-102
0.4991 	-4.06638e-102
0.4998 	-4.37411e-102
0.5005 	-2.9507e-102
0.5012 	-5.90184e-103
0.5019 	-3.80858e-103
0.5026 	-3.37012e-103
0.5033 	-2.93165e-103
0.504 	-2.49319e-103
0.5047 	-2.88602e-103
0.5054 	-2.01037e-103
0.5061 	-5.87981e-104
0.5068 	-2.65937e-104
0.5075 	-2.43989e-104
0.5082 	-2.22041e-104
0.5089 	-2.00094e-104
0.5096 	-1.78146e-104
0.5103 	-3.45372e-104
0.511 	-7.08843e-105
0.5117 	-2.88481e-105
0.5124 	-2.76908e-105
0.5131 	-2.65336e-105
0.5138 	-2.53763e-105
0.5145 	-2.4219e-105
0.5152 	-1.14342e-104
0.5159 	-1.22039e-105
0.5166 	-4.5719e-106
0.5173 	-4.48676e-106
0.518 	-4.40163e-106
0.5187 	-4.31649e-106
0.5194 	-4.23136e-106
0.5201 	-3.36165e-105
0.5208 	-2.52744e-106
0.5215 	-8.26451e-107
0.5222 	-8.15767e-107
0.5229 	-8.05082e-107
0.5236 	-7.94397e-107
0.5243 	-7.83713e-107
0.525 	-8.73682e-106
0.5257 	-5.37241e-107
0.5264 	-1.51237e-107
0.5271 	-1.49429e-107
0.5278 	-1.47621e-107
0.5285 	-1.45813e-107
0.5292 	-1.44005e-107
0.5299 	-1.24287e-106
0.5306 	-1.11283e-107
0.5313 	-2.71427e-108
0.532 	-2.68157e-108
0.5327 	-2.64887e-108
0.5334 	-2.61616e-108
0.5341 	-2.58346e-108
0.5348 	-1.52216e-107
0.5355 	-2.22262e-108
0.5362 	-5.9083e-109
0.5369 	-4.68825e-109
0.5376 	-4.62959e-109
0.5383 	-4.57093e-109
0.539 	-4.51227e-109
0.5397 	-1.34107e-108
0.5404 	-4.27948e-109
0.5411 	-1.41937e-109
0.5418 	-7.98416e-110
0.5425 	-7.8815e-110
0.5432 	-7.77883e-110
0.5439 	-7.67617e-110
0.5446 	-7.5735e-110
0.5453 	-2.32213e-109
0.546 	-3.08048e-110
0.5467 	-1.32657e-110
0.5474 	-1.30908e-110
0.5481 	-1.29158e-110
0.5488 	-1.27409e-110
0.5495 	-1.2566e-110
0.5502 	-8.0546e-110
0.5509 	-6.22846e-111
0.5516 	-2.15588e-111
0.5523 	-2.12683e-111
0.553 	-2.09777e-111
0.5537 	-2.06872e-111
0.5544 	-2.03966e-111
0.5551 	-2.02081e-110
0.5558 	-1.19348e-111
0.5565 	-3.4321e-112
0.5572 	-3.38492e-112
0.5579 	-3.33774e-112
0.5586 	-3.29056e-112
0.5593 	-3.24338e-112
0.56 	-4.39345e-111
0.5607 	-2.18897e-112
0.5614 	-5.3478e-113
0.5621 	-5.27276e-113
0.5628 	-5.19772e-113
0.5635 	-5.12268e-113
0.5642 	-5.04764e-113
0.5649 	-5.21166e-112
0.5656 	-3.86084e-113
0.5663 	-8.13609e-114
0.567 	-8.01925e-114
0.5677 	-7.90241e-114
0.5684 	-7.78557e-114
0.5691 	-7.66873e-114
0.5698 	-5.34389e-113
0.5705 	-6.55793e-114
0.5712 	-1.56246e-114
0.5719 	-1.18915e-114
0.5726 	-1.17139e-114
0.5733 	-1.15363e-114
0.574 	-1.13587e-114
0.5747 	-3.89611e-114
0.5754 	-1.07421e-114
0.5761 	-3.32921e-115
0.5768 	-1.72004e-115
0.5775 	-1.69373e-115
0.5782 	-1.66742e-115
0.5789 	-1.64111e-115
0.5796 	-1.6148e-115
0.5803 	-5.74089e-115
0.581 	-6.28556e-116
0.5817 	-2.43094e-116
0.5824 	-2.39293e-116
0.5831 	-2.35492e-116
0.5838 	-2.31691e-116
0.5845 	-2.2789e-116
0.5852 	-1.73809e-115
0.5859 	-1.09673e-116
0.5866 	-3.3642e-117
0.5873 	-3.31056e-117
0.588 	-3.25692e-117
0.5887 	-3.20327e-117
0.5894 	-3.14963e-117
0.5901 	-3.74671e-116
0.5908 	-1.80676e-117
0.5915 	-4.57129e-118
0.5922 	-4.49717e-118
0.5929 	-4.42305e-118
0.5936 	-4.34893e-118
0.5943 	-4.27481e-118
0.595 	-6.97991e-117
0.5957 	-2.84783e-118
0.5964 	-6.10992e-119
0.5971 	-6.00935e-119
0.5978 	-5.90877e-119
0.5985 	-5.8082e-119
0.5992 	-5.70763e-119
0.5999 	-7.05964e-118
0.6006 	-4.33024e-119
0.6013 	-8.02654e-120
0.602 	-7.89223e-120
0.6027 	-7.75792e-120
0.6034 	-7.62361e-120
0.6041 	-7.4893e-120
0.6048 	-6.18096e-119
0.6055 	-6.37391e-120
0.6062 	-1.38975e-120
0.6069 	-1.01736e-120
0.6076 	-9.99721e-121
0.6083 	-9.82085e-121
0.609 	-9.6445e-121
0.6097 	-3.82312e-120
0.6104 	-9.09839e-121
0.6111 	-2.68152e-121
0.6118 	-1.28862e-121
0.6125 	-1.26589e-121
0.6132 	-1.24316e-121
0.6139 	-1.22043e-121
0.6146 	-1.19771e-121
0.6153 	-4.91495e-121
0.616 	-4.52195e-122
0.6167 	-1.60484e-122
0.6174 	-1.57605e-122
0.6181 	-1.54726e-122
0.6188 	-1.51848e-122
0.6195 	-1.48969e-122
0.6202 	-1.32875e-121
0.6209 	-7.02835e-123
0.6216 	-1.96429e-123
0.6223 	-1.92842e-123
0.623 	-1.89255e-123
0.6237 	-1.85669e-123
0.6244 	-1.82082e-123
0.6251 	-2.53937e-122
0.6258 	-1.03056e-123
0.6265 	-2.36353e-124
0.6272 	-2.31961e-124
0.6279 	-2.27569e-124
0.6286 	-2.23177e-124
0.6293 	-2.18784e-124
0.63 	-4.19829e-123
0.6307 	-1.44406e-124
0.6314 	-2.79665e-125
0.6321 	-2.74376e-125
0.6328 	-2.69087e-125
0.6335 	-2.63799e-125
0.6342 	-2.5851e-125
0.6349 	-3.75496e-124
0.6356 	-1.94894e-125
0.6363 	-3.25664e-126
0.637 	-3.19402e-126
0.6377 	-3.13139e-126
0.6384 	-3.06876e-126
0.6391 	-3.00613e-126
0.6398 	-2.89814e-125
0.6405 	-2.54767e-126
0.6412 	-5.17396e-127
0.6419 	-3.65595e-127
0.6426 	-3.58293e-127
0.6433 	-3.50992e-127
0.644 	-3.43691e-127
0.6447 	-1.56523e-126
0.6454 	-3.23327e-127
0.6461 	-9.15015e-128
0.6468 	-4.11669e-128
0.6475 	-4.03302e-128
0.6482 	-3.94934e-128
0.6489 	-3.86566e-128
0.6496 	-3.78198e-128
0.6503 	-1.78784e-127
0.651 	-1.39269e-128
0.6517 	-4.57014e-129
0.6524 	-4.47582e-129
0.6531 	-4.3815e-129
0.6538 	-4.28718e-129
0.6545 	-4.19286e-129
0.6552 	-4.36521e-128
0.6559 	-1.94709e-129
0.6566 	-5.01662e-130
0.6573 	-4.91183e-130
0.658 	-4.80704e-130
0.6587 	-4.70225e-130
0.6594 	-4.59746e-130
0.6601 	-7.4824e-129
0.6608 	-2.57622e-130
0.6615 	-5.46848e-131
0.6622 	-5.3534e-131
0.6629 	-5.23833e-131
0.6636 	-5.12325e-131
0.6643 	-5.00817e-131
0.665 	-1.1152e-129
0.6657 	-3.2854e-131
0.6664 	-5.94693e-132
0.6671 	-5.82145e-132
0.6678 	-5.69597e-132
0.6685 	-5.57049e-132
0.6692 	-5.44501e-132
0.6699 	-9.07212e-131
0.6706 	-4.09048e-132
0.6713 	-6.48924e-133
0.672 	-6.35278e-133
0.6727 	-6.21632e-133
0.6734 	-6.07986e-133
0.6741 	-5.9434e-133
0.6748 	-6.47728e-132
0.6755 	-5.02751e-133
0.6762 	-1.00143e-133
0.6769 	-7.00026e-134
0.6776 	-6.85136e-134
0.6783 	-6.70247e-134
0.679 	-6.55358e-134
0.6797 	-3.29073e-133
0.6804 	-6.15899e-134
0.6811 	-1.7343e-134
0.6818 	-7.7324e-135
0.6825 	-7.56808e-135
0.6832 	-7.40376e-135
0.6839 	-7.23944e-135
0.6846 	-7.07512e-135
0.6853 	-3.62451e-134
0.686 	-2.57947e-135
0.6867 	-8.17678e-136
0.6874 	-7.99409e-136
0.6881 	-7.81141e-136
0.6888 	-7.62872e-136
0.6895 	-7.44603e-136
0.6902 	-8.28068e-135
0.6909 	-3.36057e-136
0.6916 	-7.3118e-137
0.6923 	-7.11589e-137
0.693 	-6.91999e-137
0.6937 	-6.72409e-137
0.6944 	-6.52818e-137
0.6951 	-1.11711e-135
0.6958 	-3.63266e-137
0.6965 	-7.45772e-138
0.6972 	-7.28994e-138
0.6979 	-7.12216e-138
0.6986 	-6.95438e-138
0.6993 	-6.7866e-138
0.7 	-9.37538e-138
