0 	1
0.0007 	1
0.0014 	1
0.0021 	1
0.0028 	1
0.0035 	1
0.0042 	1
0.0049 	1
0.0056 	1
0.0063 	1
0.007 	1
0.0077 	1
0.0084 	1
0.0091 	1
0.0098 	1
0.0105 	1
0.0112 	1
0.0119 	1
0.0126 	1
0.0133 	1
0.014 	1
0.0147 	1
0.0154 	1
0.0161 	1
0.0168 	1
0.0175 	1
0.0182 	1
0.0189 	1
0.0196 	1
0.0203 	1
0.021 	1
0.0217 	1
0.0224 	1
0.0231 	1
0.0238 	1
0.0245 	1
0.0252 	1
0.0259 	1
0.0266 	1
0.0273 	1
0.028 	1
0.0287 	1
0.0294 	1
0.0301 	1
0.0308 	1
0.0315 	1
0.0322 	1
0.0329 	1
0.0336 	1
0.0343 	1
0.035 	1
0.0357 	1
0.0364 	1
0.0371 	1
0.0378 	1
0.0385 	1
0.0392 	1
0.0399 	1
0.0406 	1
0.0413 	1
0.042 	1
0.0427 	1
0.0434 	1
0.0441 	1
0.0448 	1
0.0455 	1
0.0462 	1
0.0469 	1
0.0476 	1
0.0483 	1
0.049 	1
0.0497 	1
0.0504 	1
0.0511 	1
0.0518 	1
0.0525 	1
0.0532 	1
0.0539 	1
0.0546 	1
0.0553 	1
0.056 	1
0.0567 	1
0.0574 	1
0.0581 	1
0.0588 	1
0.0595 	1
0.0602 	1
0.0609 	1
0.0616 	1
0.0623 	1
0.063 	1
0.0637 	1
0.0644 	1
0.0651 	1
0.0658 	1
0.0665 	1
0.0672 	1
0.0679 	1
0.0686 	1
0.0693 	1
0.07 	1
0.0707 	1
0.0714 	1
0.0721 	1
0.0728 	1
0.0735 	1
0.0742 	1
0.0749 	1
0.0756 	1
0.0763 	1
0.077 	1
0.0777 	1
0.0784 	1
0.0791 	1
0.0798 	1
0.0805 	1
0.0812 	1
0.0819 	1
0.0826 	1
0.0833 	1
0.084 	1
0.0847 	1
0.0854 	1
0.0861 	1
0.0868 	1
0.0875 	1
0.0882 	1
0.0889 	1
0.0896 	1
0.0903 	1
0.091 	1
0.0917 	1
0.0924 	1
0.0931 	1
0.0938 	1
0.0945 	1
0.0952 	1
0.0959 	1
0.0966 	1
0.0973 	1
0.098 	1
0.0987 	1
0.0994 	1
0.1001 	1
0.1008 	1
0.1015 	1
0.1022 	1
0.1029 	1
0.1036 	1
0.1043 	1
0.105 	1
0.1057 	1
0.1064 	1
0.1071 	1
0.1078 	1
0.1085 	1
0.1092 	1
0.1099 	1
0.1106 	1
0.1113 	1
0.112 	1
0.1127 	1
0.1134 	1
0.1141 	1
0.1148 	1
0.1155 	1
0.1162 	1
0.1169 	1
0.1176 	1
0.1183 	1
0.119 	1
0.1197 	1
0.1204 	1
0.1211 	1
0.1218 	1
0.1225 	1
0.1232 	1
0.1239 	1
0.1246 	1
0.1253 	1
0.126 	1
0.1267 	1
0.1274 	1
0.1281 	1
0.1288 	1
0.1295 	1
0.1302 	1
0.1309 	1
0.1316 	1
0.1323 	1
0.133 	1
0.1337 	1
0.1344 	1
0.1351 	1
0.1358 	1
0.1365 	1
0.1372 	1
0.1379 	1
0.1386 	1
0.1393 	1
0.14 	1
0.1407 	1
0.1414 	1
0.1421 	1
0.1428 	1
0.1435 	1
0.1442 	1
0.1449 	1
0.1456 	1
0.1463 	1
0.147 	1
0.1477 	1
0.1484 	1
0.1491 	1
0.1498 	1
0.1505 	1
0.1512 	1
0.1519 	1
0.1526 	1
0.1533 	1
0.154 	1
0.1547 	1
0.1554 	1
0.1561 	1
0.1568 	1
0.1575 	1
0.1582 	1
0.1589 	1
0.1596 	1
0.1603 	1
0.161 	1
0.1617 	1
0.1624 	1
0.1631 	1
0.1638 	1
0.1645 	1
0.1652 	1
0.1659 	1
0.1666 	1
0.1673 	1
0.168 	1
0.1687 	1
0.1694 	1
0.1701 	1
0.1708 	1
0.1715 	1
0.1722 	1
0.1729 	1
0.1736 	1
0.1743 	1
0.175 	1
0.1757 	1
0.1764 	1
0.1771 	1
0.1778 	1
0.1785 	1
0.1792 	1
0.1799 	1
0.1806 	1
0.1813 	1
0.182 	1
0.1827 	1
0.1834 	1
0.1841 	1
0.1848 	1
0.1855 	1
0.1862 	1
0.1869 	1
0.1876 	1
0.1883 	1
0.189 	1
0.1897 	1
0.1904 	1
0.1911 	1
0.1918 	1
0.1925 	1
0.1932 	1
0.1939 	1
0.1946 	1
0.1953 	1
0.196 	1
0.1967 	1
0.1974 	1
0.1981 	1
0.1988 	1
0.1995 	1
0.2002 	1
0.2009 	1
0.2016 	1
0.2023 	1
0.203 	1
0.2037 	1
0.2044 	1
0.2051 	1
0.2058 	1
0.2065 	1
0.2072 	1
0.2079 	1
0.2086 	1
0.2093 	1
0.21 	1
0.2107 	1
0.2114 	1
0.2121 	1
0.2128 	1
0.2135 	1
0.2142 	1
0.2149 	1
0.2156 	1
0.2163 	1
0.217 	1
0.2177 	1
0.2184 	1
0.2191 	1
0.2198 	1
0.2205 	1
0.2212 	1
0.2219 	1
0.2226 	1
0.2233 	1
0.224 	1
0.2247 	1
0.2254 	1
0.2261 	1
0.2268 	1
0.2275 	1
0.2282 	1
0.2289 	1
0.2296 	1
0.2303 	1
0.231 	1
0.2317 	0.999999
0.2324 	0.999997
0.2331 	0.999995
0.2338 	0.999994
0.2345 	0.999991
0.2352 	0.999989
0.2359 	0.999987
0.2366 	0.999781
0.2373 	0.999451
0.238 	0.999122
0.2387 	0.998792
0.2394 	0.998305
0.2401 	0.99779
0.2408 	0.997335
0.2415 	0.992739
0.2422 	0.983692
0.2429 	0.974646
0.2436 	0.965599
0.2443 	0.952368
0.245 	0.936984
0.2457 	0.922339
0.2464 	0.896304
0.2471 	0.848158
0.2478 	0.800012
0.2485 	0.751866
0.2492 	0.688955
0.2499 	0.612236
0.2506 	0.536335
0.2513 	0.463696
0.252 	0.403729
0.2527 	0.343762
0.2534 	0.283795
0.2541 	0.229052
0.2548 	0.183084
0.2555 	0.137229
0.2562 	0.0927762
0.2569 	0.0712908
0.2576 	0.0498059
0.2583 	0.0283211
0.259 	0.0112626
0.2597 	0.00905876
0.2604 	0.00678138
0.2611 	0.00444884
0.2618 	0.00334991
0.2625 	0.00236767
0.2632 	0.00138543
0.2639 	0.000479904
0.2646 	0.000389848
0.2653 	0.000298388
0.266 	0.000205057
0.2667 	0.000151888
0.2674 	0.000110616
0.2681 	6.93453e-05
0.2688 	2.80742e-05
0.2695 	2.12054e-05
0.2702 	1.63908e-05
0.2709 	1.14554e-05
0.2716 	8.25781e-06
0.2723 	6.08374e-06
0.273 	3.90967e-06
0.2737 	1.7356e-06
0.2744 	1.10557e-06
0.2751 	8.62954e-07
0.2758 	6.11811e-07
0.2765 	4.29609e-07
0.2772 	3.19982e-07
0.2779 	2.10356e-07
0.2786 	1.00729e-07
0.2793 	5.52621e-08
0.28 	4.35509e-08
0.2807 	3.13004e-08
0.2814 	2.14433e-08
0.2821 	1.61303e-08
0.2828 	1.08173e-08
0.2835 	5.50435e-09
0.2842 	2.63109e-09
0.2849 	2.08609e-09
0.2856 	1.51894e-09
0.2863 	1.01428e-09
0.287 	7.69785e-10
0.2877 	5.25294e-10
0.2884 	2.80803e-10
0.2891 	1.1801e-10
0.2898 	9.54478e-11
0.2905 	7.20081e-11
0.2912 	4.90541e-11
0.2919 	3.90464e-11
0.2926 	2.90399e-11
0.2933 	1.90333e-11
0.294 	1.10627e-11
0.2947 	1.0122e-11
0.2954 	9.14824e-12
0.2961 	8.14968e-12
0.2968 	7.60523e-12
0.2975 	7.10106e-12
0.2982 	6.5969e-12
0.2989 	6.11884e-12
0.2996 	5.93686e-12
0.3003 	5.75965e-12
0.301 	5.58879e-12
0.3017 	5.31986e-12
0.3024 	5.0228e-12
0.3031 	4.72574e-12
0.3038 	4.42868e-12
0.3045 	4.02938e-12
0.3052 	3.62707e-12
0.3059 	3.23429e-12
0.3066 	2.89104e-12
0.3073 	2.57658e-12
0.308 	2.26213e-12
0.3087 	1.94767e-12
0.3094 	1.68681e-12
0.3101 	1.44044e-12
0.3108 	1.19755e-12
0.3115 	1.00437e-12
0.3122 	8.62652e-13
0.3129 	7.20938e-13
0.3136 	5.79224e-13
0.3143 	4.85668e-13
0.315 	4.17993e-13
0.3157 	3.51026e-13
0.3164 	2.93412e-13
0.3171 	2.53238e-13
0.3178 	2.13064e-13
0.3185 	1.7289e-13
0.3192 	1.42265e-13
0.3199 	1.20929e-13
0.3206 	9.98479e-14
0.3213 	8.066e-14
0.322 	6.85642e-14
0.3227 	5.64684e-14
0.3234 	4.43727e-14
0.3241 	3.46347e-14
0.3248 	2.90268e-14
0.3255 	2.34421e-14
0.3262 	1.80366e-14
0.3269 	1.50683e-14
0.3276 	1.21008e-14
0.3283 	9.13337e-15
0.329 	6.5742e-15
0.3297 	5.46326e-15
0.3304 	4.35043e-15
0.3311 	3.23619e-15
0.3318 	2.63312e-15
0.3325 	2.07287e-15
0.3332 	1.51263e-15
0.3339 	9.82128e-16
0.3346 	8.1097e-16
0.3353 	6.38958e-16
0.336 	4.65806e-16
0.3367 	3.63371e-16
0.3374 	2.80822e-16
0.3381 	1.98272e-16
0.3388 	1.15723e-16
0.3395 	9.17058e-17
0.3402 	7.17605e-17
0.3409 	5.14821e-17
0.3416 	3.829e-17
0.3423 	2.9113e-17
0.343 	1.99361e-17
0.3437 	1.07591e-17
0.3444 	7.5286e-18
0.3451 	5.87419e-18
0.3458 	4.16353e-18
0.3465 	2.9372e-18
0.3472 	2.20279e-18
0.3479 	1.46837e-18
0.3486 	7.33963e-19
0.3493 	4.15402e-19
0.35 	3.24674e-19
0.3507 	2.28044e-19
0.3514 	1.51758e-19
0.3521 	1.12614e-19
0.3528 	7.34697e-20
0.3535 	3.43256e-20
0.3542 	1.34081e-20
0.3549 	1.05284e-20
0.3556 	7.37773e-21
0.3563 	4.60286e-21
0.357 	3.39587e-21
0.3577 	2.18888e-21
0.3584 	9.8189e-22
0.3591 	1.94165e-22
0.3598 	1.54493e-22
0.3605 	1.08822e-22
0.3612 	6.29527e-23
0.3619 	4.6531e-23
0.3626 	3.0113e-23
0.3633 	1.3695e-23
0.364 	7.88573e-25
0.3647 	6.46932e-25
0.3654 	4.65167e-25
0.3661 	2.53309e-25
0.3668 	1.80799e-25
0.3675 	1.19231e-25
0.3682 	5.7663e-26
0.3689 	5.43326e-28
0.3696 	4.73487e-28
0.3703 	3.59767e-28
0.371 	1.87538e-28
0.3717 	1.19871e-28
0.3724 	8.08558e-29
0.3731 	4.1841e-29
0.3738 	2.82616e-30
0.3745 	5.08421e-32
0.3752 	4.2868e-32
0.3759 	2.17654e-32
0.3766 	1.18545e-32
0.3773 	8.16784e-33
0.378 	4.48121e-33
0.3787 	7.94568e-34
0.3794 	3.79707e-36
0.3801 	3.42629e-36
0.3808 	1.84015e-36
0.3815 	9.11743e-37
0.3822 	6.40298e-37
0.3829 	3.68853e-37
0.3836 	9.74079e-38
0.3843 	2.65969e-40
0.385 	2.53248e-40
0.3857 	1.43554e-40
0.3864 	6.63453e-41
0.3871 	4.74013e-41
0.3878 	2.84572e-41
0.3885 	9.51321e-42
0.3892 	1.78701e-44
0.3899 	1.69569e-44
0.3906 	1.05874e-44
0.3913 	4.60566e-45
0.392 	3.34227e-45
0.3927 	2.07889e-45
0.3934 	8.15502e-46
0.3941 	1.14966e-48
0.3948 	1.09002e-48
0.3955 	7.41082e-49
0.3962 	3.04604e-49
0.3969 	2.24195e-49
0.3976 	1.43804e-49
0.3983 	6.34125e-50
0.399 	7.09357e-53
0.3997 	6.73998e-53
0.4004 	4.9527e-53
0.4011 	2.09016e-53
0.4018 	1.43635e-53
0.4025 	9.46482e-54
0.4032 	4.5661e-54
0.4039 	4.21988e-57
0.4046 	4.0278e-57
0.4053 	3.18493e-57
0.406 	1.47433e-57
0.4067 	8.85539e-58
0.4074 	5.97596e-58
0.4081 	3.09654e-58
0.4088 	2.17112e-59
0.4095 	2.34124e-61
0.4102 	1.98692e-61
0.4109 	9.89466e-62
0.4116 	5.30089e-62
0.4123 	3.65399e-62
0.413 	2.00708e-62
0.4137 	3.6017e-63
0.4144 	1.3332e-65
0.4151 	1.21185e-65
0.4158 	6.40789e-66
0.4165 	3.10817e-66
0.4172 	2.18366e-66
0.4179 	1.25916e-66
0.4186 	3.34653e-67
0.4193 	7.48554e-70
0.42 	7.27099e-70
0.4207 	4.04447e-70
0.4214 	1.79835e-70
0.4221 	1.2853e-70
0.4228 	7.72244e-71
0.4235 	2.5919e-71
0.4242 	-8.96573e-75
0.4249 	-1.04988e-73
0.4256 	-5.27234e-74
0.4263 	6.82118e-75
0.427 	3.99179e-75
0.4277 	1.1624e-75
0.4284 	-1.66699e-75
0.4291 	-3.72738e-74
0.4298 	-1.33143e-73
0.4305 	-9.20435e-74
0.4312 	-3.15055e-75
0.4319 	-2.82996e-75
0.4326 	-2.82526e-75
0.4333 	-2.82056e-75
0.434 	-1.90248e-74
0.4347 	-9.65594e-74
0.4354 	-8.54639e-74
0.4361 	-7.89596e-75
0.4368 	-2.14251e-75
0.4375 	-2.13526e-75
0.4382 	-2.128e-75
0.4389 	-6.03063e-75
0.4396 	-6.54438e-74
0.4403 	-7.39188e-74
0.441 	-1.44762e-74
0.4417 	-1.54217e-75
0.4424 	-1.53574e-75
0.4431 	-1.5293e-75
0.4438 	-1.52287e-75
0.4445 	-4.16085e-74
0.4452 	-6.02233e-74
0.4459 	-1.67491e-74
0.4466 	-1.0625e-75
0.4473 	-1.05728e-75
0.448 	-1.05205e-75
0.4487 	-1.04683e-75
0.4494 	-2.47562e-74
0.4501 	-4.64843e-74
0.4508 	-1.60432e-74
0.4515 	-7.02487e-76
0.4522 	-6.98506e-76
0.4529 	-6.94525e-76
0.4536 	-6.90543e-76
0.4543 	-1.36869e-74
0.455 	-3.41186e-74
0.4557 	-1.36738e-74
0.4564 	-4.4643e-76
0.4571 	-4.43549e-76
0.4578 	-4.40668e-76
0.4585 	-4.37788e-76
0.4592 	-6.93197e-75
0.4599 	-2.01083e-74
0.4606 	-1.06888e-74
0.4613 	-2.72994e-76
0.462 	-2.71004e-76
0.4627 	-2.69014e-76
0.4634 	-2.67023e-76
0.4641 	-3.12263e-75
0.4648 	-1.12897e-74
0.4655 	-7.7852e-75
0.4662 	-2.0644e-76
0.4669 	-1.59459e-76
0.4676 	-1.58144e-76
0.4683 	-1.56828e-76
0.469 	-1.16207e-75
0.4697 	-6.03156e-75
0.4704 	-5.33371e-75
0.4711 	-4.60359e-76
0.4718 	-9.04322e-77
0.4725 	-8.95986e-77
0.4732 	-8.8765e-77
0.4739 	-2.65512e-76
0.4746 	-3.06077e-75
0.4753 	-3.45908e-75
0.476 	-6.61455e-76
0.4767 	-4.94712e-77
0.4774 	-4.89643e-77
0.4781 	-4.84574e-77
0.4788 	-4.79506e-77
0.4795 	-1.471e-75
0.4802 	-2.13326e-75
0.4809 	-5.85672e-76
0.4816 	-2.61279e-77
0.4823 	-2.58317e-77
0.483 	-2.55355e-77
0.4837 	-2.52393e-77
0.4844 	-6.66318e-76
0.4851 	-1.25539e-75
0.4858 	-4.2974e-76
0.4865 	-1.33334e-77
0.4872 	-1.31667e-77
0.4879 	-1.30001e-77
0.4886 	-1.28335e-77
0.4893 	-2.82141e-76
0.49 	-7.06894e-76
0.4907 	-2.81709e-76
0.4914 	-6.57969e-78
0.4921 	-6.48932e-78
0.4928 	-6.39896e-78
0.4935 	-6.30859e-78
0.4942 	-1.10024e-76
0.4949 	-3.21309e-76
0.4956 	-1.70196e-76
0.4963 	-3.14216e-78
0.497 	-3.09486e-78
0.4977 	-3.04757e-78
0.4984 	-3.00027e-78
0.4991 	-3.83311e-77
0.4998 	-1.39937e-76
0.5005 	-9.63085e-77
0.5012 	-2.07992e-78
0.5019 	-1.42931e-78
0.5026 	-1.40541e-78
0.5033 	-1.3815e-78
0.504 	-1.10523e-77
0.5047 	-5.8325e-77
0.5054 	-5.15391e-77
0.5061 	-4.20916e-78
0.5068 	-6.39726e-79
0.5075 	-6.2805e-79
0.5082 	-6.16375e-79
0.5089 	-1.92442e-78
0.5096 	-2.3219e-77
0.5103 	-2.62494e-77
0.511 	-4.92756e-78
0.5117 	-2.77716e-79
0.5124 	-2.72203e-79
0.5131 	-2.6669e-79
0.5138 	-2.61177e-79
0.5145 	-8.80135e-78
0.5152 	-1.2781e-77
0.5159 	-3.47422e-78
0.5166 	-1.17038e-79
0.5173 	-1.1452e-79
0.518 	-1.12002e-79
0.5187 	-1.09484e-79
0.5194 	-3.16085e-78
0.5201 	-5.96959e-78
0.5208 	-2.03063e-78
0.5215 	-4.79259e-80
0.5222 	-4.68124e-80
0.5229 	-4.56989e-80
0.5236 	-4.45853e-80
0.5243 	-1.06656e-78
0.525 	-2.68189e-78
0.5257 	-1.06413e-78
0.5264 	-1.90859e-80
0.5271 	-1.86088e-80
0.5278 	-1.81318e-80
0.5285 	-1.76547e-80
0.5292 	-3.33079e-79
0.5299 	-9.77372e-79
0.5306 	-5.16292e-79
0.5313 	-7.39791e-81
0.532 	-7.19974e-81
0.5327 	-7.00157e-81
0.5334 	-6.8034e-81
0.5341 	-9.33547e-80
0.5348 	-3.43168e-79
0.5355 	-2.3581e-79
0.5362 	-4.29187e-81
0.5369 	-2.71311e-81
0.5376 	-2.63322e-81
0.5383 	-2.55333e-81
0.539 	-2.17191e-80
0.5397 	-1.15964e-79
0.5404 	-1.02408e-79
0.5411 	-7.99927e-81
0.5418 	-9.96424e-82
0.5425 	-9.65148e-82
0.5432 	-9.33871e-82
0.5439 	-3.02021e-81
0.5446 	-3.76462e-80
0.5453 	-4.2566e-80
0.546 	-7.87744e-81
0.5467 	-3.56863e-82
0.5474 	-3.44965e-82
0.5481 	-3.33066e-82
0.5488 	-3.21168e-82
0.5495 	-1.17048e-80
0.5502 	-1.7012e-80
0.5509 	-4.58962e-81
0.5516 	-1.24709e-82
0.5523 	-1.20308e-82
0.553 	-1.15907e-82
0.5537 	-1.11506e-82
0.5544 	-3.46764e-81
0.5551 	-6.55944e-81
0.5558 	-2.22076e-81
0.5565 	-4.25496e-83
0.5572 	-4.09657e-83
0.5579 	-3.93819e-83
0.5586 	-3.77981e-83
0.5593 	-9.70502e-82
0.56 	-2.44632e-81
0.5607 	-9.67513e-82
0.5614 	-1.41814e-83
0.5621 	-1.36265e-83
0.5628 	-1.30716e-83
0.5635 	-1.25167e-83
0.5642 	-2.52654e-82
0.5649 	-7.43799e-82
0.5656 	-3.921e-82
0.5663 	-4.61945e-84
0.567 	-4.43005e-84
0.5677 	-4.24065e-84
0.5684 	-4.05126e-84
0.5691 	-5.92854e-83
0.5698 	-2.18982e-82
0.5705 	-1.50294e-82
0.5712 	-2.35114e-84
0.5719 	-1.40845e-84
0.5726 	-1.34544e-84
0.5733 	-1.28243e-84
0.574 	-1.15768e-83
0.5747 	-6.23371e-83
0.5754 	-5.50212e-83
0.5761 	-4.14843e-84
0.5768 	-4.38189e-85
0.5775 	-4.17744e-85
0.5782 	-3.97299e-85
0.5789 	-1.34002e-84
0.5796 	-1.7121e-83
0.5803 	-1.936e-83
0.581 	-3.54313e-84
0.5817 	-1.33487e-85
0.5824 	-1.27011e-85
0.5831 	-1.20535e-85
0.5838 	-1.14059e-85
0.5845 	-4.52198e-84
0.5852 	-6.5766e-84
0.5859 	-1.76385e-84
0.5866 	-3.9838e-86
0.5873 	-3.78341e-86
0.588 	-3.58303e-86
0.5887 	-3.38265e-86
0.5894 	-1.14262e-84
0.5901 	-2.16406e-84
0.5908 	-7.29954e-85
0.5915 	-1.16535e-86
0.5922 	-1.10473e-86
0.5929 	-1.04412e-86
0.5936 	-9.83505e-87
0.5943 	-2.7382e-85
0.595 	-6.91531e-85
0.5957 	-2.72806e-85
0.5964 	-3.34295e-87
0.5971 	-3.16361e-87
0.5978 	-2.98427e-87
0.5985 	-2.80492e-87
0.5992 	-6.12644e-86
0.5999 	-1.80824e-85
0.6006 	-9.5171e-86
0.6013 	-9.4088e-88
0.602 	-8.88941e-88
0.6027 	-8.37001e-88
0.6034 	-7.85062e-88
0.6041 	-1.23963e-86
0.6048 	-4.59613e-86
0.6055 	-3.15161e-86
0.6062 	-4.23835e-88
0.6069 	-2.45191e-88
0.6076 	-2.30458e-88
0.6083 	-2.15725e-88
0.609 	-2.09191e-87
0.6097 	-1.13385e-86
0.6104 	-1.00041e-86
0.6111 	-7.33931e-88
0.6118 	-6.64092e-89
0.6125 	-6.23141e-89
0.6132 	-5.82191e-89
0.6139 	-2.07944e-88
0.6146 	-2.70854e-87
0.6153 	-3.063e-87
0.616 	-5.55949e-88
0.6167 	-1.76677e-89
0.6174 	-1.65518e-89
0.6181 	-1.54358e-89
0.6188 	-1.43198e-89
0.6195 	-6.2428e-88
0.6202 	-9.08383e-88
0.6209 	-2.42585e-88
0.6216 	-4.61819e-90
0.6223 	-4.31992e-90
0.623 	-4.02164e-90
0.6237 	-3.72336e-90
0.6244 	-1.38062e-88
0.6251 	-2.61725e-88
0.6258 	-8.80479e-89
0.6265 	-1.18631e-90
0.6272 	-1.10808e-90
0.6279 	-1.02986e-90
0.6286 	-9.5164e-91
0.6293 	-2.90309e-89
0.63 	-7.34219e-89
0.6307 	-2.89126e-89
0.6314 	-2.99533e-91
0.6321 	-2.794e-91
0.6328 	-2.59266e-91
0.6335 	-2.39133e-91
0.6342 	-5.71139e-90
0.6349 	-1.68895e-89
0.6356 	-8.87939e-90
0.6363 	-7.43558e-92
0.637 	-6.92683e-92
0.6377 	-6.41809e-92
0.6384 	-5.90934e-92
0.6391 	-1.01775e-90
0.6398 	-3.78399e-90
0.6405 	-2.59311e-90
0.6412 	-2.99346e-92
0.6419 	-1.68892e-92
0.6426 	-1.56267e-92
0.6433 	-1.43642e-92
0.644 	-1.51331e-91
0.6447 	-8.24216e-91
0.6454 	-7.27041e-91
0.6461 	-5.23215e-92
0.6468 	-4.05085e-93
0.6475 	-3.74306e-93
0.6482 	-3.43526e-93
0.6489 	-1.31781e-92
0.6496 	-1.74093e-91
0.6503 	-1.96891e-91
0.651 	-3.55349e-92
0.6517 	-9.55914e-94
0.6524 	-8.8217e-94
0.6531 	-8.08425e-94
0.6538 	-7.3468e-94
0.6545 	-3.5525e-92
0.6552 	-5.1711e-92
0.6559 	-1.37696e-92
0.6566 	-2.21947e-94
0.6573 	-2.04579e-94
0.658 	-1.87212e-94
0.6587 	-1.69844e-94
0.6594 	-6.96266e-93
0.6601 	-1.32078e-92
0.6608 	-4.43544e-93
0.6615 	-5.06967e-95
0.6622 	-4.66757e-95
0.6629 	-4.26547e-95
0.6636 	-3.86336e-95
0.6643 	-1.29815e-93
0.665 	-3.28633e-93
0.6657 	-1.29259e-93
0.6664 	-1.13846e-95
0.6671 	-1.04694e-95
0.6678 	-9.55409e-96
0.6685 	-8.63882e-96
0.6692 	-2.26229e-94
0.6699 	-6.69841e-94
0.6706 	-3.51903e-94
0.6713 	-2.50718e-96
0.672 	-2.30243e-96
0.6727 	-2.09767e-96
0.6734 	-1.89292e-96
0.6741 	-3.551e-95
0.6748 	-1.32259e-94
0.6755 	-9.0598e-95
0.6762 	-8.96808e-97
0.6769 	-4.92341e-97
0.6776 	-4.47409e-97
0.6783 	-4.02476e-97
0.679 	-4.56399e-96
0.6797 	-2.49252e-95
0.6804 	-2.19824e-95
0.6811 	-1.56156e-96
0.6818 	-1.00143e-97
0.6825 	-9.05462e-98
0.6832 	-8.09496e-98
0.6839 	-3.25938e-97
0.6846 	-4.33089e-96
0.6853 	-4.89774e-96
0.686 	-8.80466e-97
0.6867 	-1.84524e-98
0.6874 	-1.65064e-98
0.6881 	-1.45603e-98
0.6888 	-1.26142e-98
0.6895 	-6.45613e-97
0.6902 	-9.39683e-97
0.6909 	-2.49669e-97
0.6916 	-2.80151e-99
0.6923 	-2.44947e-99
0.693 	-2.09743e-99
0.6937 	-1.74539e-99
0.6944 	-7.16854e-98
0.6951 	-1.35927e-97
0.6958 	-4.55741e-98
0.6965 	-2.30827e-100
0.6972 	-1.81824e-100
0.6979 	-1.32821e-100
0.6986 	-8.38174e-101
0.6993 	-4.97504e-101
0.7 	-2.42647e-101
