0 	1
0.0007 	1
0.0014 	1
0.0021 	1
0.0028 	1
0.0035 	1
0.0042 	1
0.0049 	1
0.0056 	1
0.0063 	1
0.007 	1
0.0077 	1
0.0084 	1
0.0091 	1
0.0098 	1
0.0105 	1
0.0112 	1
0.0119 	1
0.0126 	1
0.0133 	1
0.014 	1
0.0147 	1
0.0154 	1
0.0161 	1
0.0168 	1
0.0175 	1
0.0182 	1
0.0189 	1
0.0196 	1
0.0203 	1
0.021 	1
0.0217 	1
0.0224 	1
0.0231 	1
0.0238 	1
0.0245 	1
0.0252 	1
0.0259 	1
0.0266 	1
0.0273 	1
0.028 	1
0.0287 	1
0.0294 	1
0.0301 	1
0.0308 	1
0.0315 	1
0.0322 	1
0.0329 	1
0.0336 	1
0.0343 	1
0.035 	1
0.0357 	1
0.0364 	1
0.0371 	1
0.0378 	1
0.0385 	1
0.0392 	1
0.0399 	1
0.0406 	1
0.0413 	1
0.042 	1
0.0427 	1
0.0434 	1
0.0441 	1
0.0448 	1
0.0455 	1
0.0462 	1
0.0469 	1
0.0476 	1
0.0483 	1
0.049 	1
0.0497 	1
0.0504 	1
0.0511 	1
0.0518 	1
0.0525 	1
0.0532 	1
0.0539 	1
0.0546 	1
0.0553 	1
0.056 	1
0.0567 	1
0.0574 	1
0.0581 	1
0.0588 	1
0.0595 	1
0.0602 	1
0.0609 	1
0.0616 	1
0.0623 	1
0.063 	1
0.0637 	1
0.0644 	1
0.0651 	1
0.0658 	1
0.0665 	1
0.0672 	1
0.0679 	1
0.0686 	1
0.0693 	1
0.07 	1
0.0707 	1
0.0714 	1
0.0721 	1
0.0728 	1
0.0735 	1
0.0742 	1
0.0749 	1
0.0756 	1
0.0763 	1
0.077 	1
0.0777 	1
0.0784 	1
0.0791 	1
0.0798 	1
0.0805 	1
0.0812 	1
0.0819 	1
0.0826 	1
0.0833 	1
0.084 	1
0.0847 	1
0.0854 	1
0.0861 	1
0.0868 	1
0.0875 	1
0.0882 	1
0.0889 	1
0.0896 	1
0.0903 	1
0.091 	1
0.0917 	1
0.0924 	1
0.0931 	1
0.0938 	1
0.0945 	1
0.0952 	1
0.0959 	1
0.0966 	1
0.0973 	1
0.098 	1
0.0987 	1
0.0994 	1
0.1001 	1
0.1008 	1
0.1015 	1
0.1022 	1
0.1029 	1
0.1036 	1
0.1043 	1
0.105 	1
0.1057 	1
0.1064 	1
0.1071 	1
0.1078 	1
0.1085 	1
0.1092 	1
0.1099 	1
0.1106 	1
0.1113 	1
0.112 	1
0.1127 	1
0.1134 	1
0.1141 	1
0.1148 	1
0.1155 	1
0.1162 	1
0.1169 	1
0.1176 	1
0.1183 	1
0.119 	1
0.1197 	1
0.1204 	1
0.1211 	1
0.1218 	1
0.1225 	1
0.1232 	1
0.1239 	1
0.1246 	1
0.1253 	1
0.126 	1
0.1267 	1
0.1274 	1
0.1281 	1
0.1288 	1
0.1295 	1
0.1302 	1
0.1309 	1
0.1316 	1
0.1323 	1
0.133 	1
0.1337 	1
0.1344 	1
0.1351 	1
0.1358 	1
0.1365 	1
0.1372 	1
0.1379 	1
0.1386 	1
0.1393 	1
0.14 	1
0.1407 	1
0.1414 	1
0.1421 	1
0.1428 	1
0.1435 	1
0.1442 	1
0.1449 	1
0.1456 	1
0.1463 	1
0.147 	1
0.1477 	1
0.1484 	1
0.1491 	1
0.1498 	1
0.1505 	1
0.1512 	1
0.1519 	1
0.1526 	1
0.1533 	1
0.154 	1
0.1547 	1
0.1554 	1
0.1561 	1
0.1568 	1
0.1575 	1
0.1582 	1
0.1589 	1
0.1596 	1
0.1603 	1
0.161 	1
0.1617 	1
0.1624 	1
0.1631 	1
0.1638 	1
0.1645 	1
0.1652 	1
0.1659 	1
0.1666 	1
0.1673 	1
0.168 	1
0.1687 	1
0.1694 	1
0.1701 	1
0.1708 	1
0.1715 	1
0.1722 	1
0.1729 	1
0.1736 	1
0.1743 	1
0.175 	1
0.1757 	1
0.1764 	1
0.1771 	1
0.1778 	1
0.1785 	1
0.1792 	1
0.1799 	1
0.1806 	1
0.1813 	1
0.182 	1
0.1827 	1
0.1834 	1
0.1841 	1
0.1848 	1
0.1855 	1
0.1862 	1
0.1869 	1
0.1876 	1
0.1883 	1
0.189 	1
0.1897 	1
0.1904 	1
0.1911 	1
0.1918 	1
0.1925 	1
0.1932 	1
0.1939 	1
0.1946 	1
0.1953 	1
0.196 	1
0.1967 	1
0.1974 	1
0.1981 	1
0.1988 	1
0.1995 	1
0.2002 	1
0.2009 	1
0.2016 	1
0.2023 	1
0.203 	1
0.2037 	1
0.2044 	0.999999
0.2051 	0.999999
0.2058 	0.999999
0.2065 	0.999996
0.2072 	0.999989
0.2079 	0.999978
0.2086 	0.999957
0.2093 	0.999929
0.21 	0.999901
0.2107 	0.999886
0.2114 	0.999839
0.2121 	0.999674
0.2128 	0.999485
0.2135 	0.999132
0.2142 	0.998684
0.2149 	0.998182
0.2156 	0.997807
0.2163 	0.99729
0.217 	0.994636
0.2177 	0.991983
0.2184 	0.984995
0.2191 	0.976813
0.2198 	0.967481
0.2205 	0.960992
0.2212 	0.955641
0.2219 	0.926032
0.2226 	0.894557
0.2233 	0.851001
0.224 	0.795929
0.2247 	0.724061
0.2254 	0.653145
0.2261 	0.582941
0.2268 	0.51933
0.2275 	0.457517
0.2282 	0.396395
0.2289 	0.337362
0.2296 	0.284922
0.2303 	0.230397
0.231 	0.173093
0.2317 	0.128074
0.2324 	0.0898808
0.2331 	0.0597146
0.2338 	0.0372126
0.2345 	0.0324582
0.2352 	0.0268916
0.2359 	0.0192944
0.2366 	0.0127333
0.2373 	0.00720845
0.238 	0.0031059
0.2387 	0.000991372
0.2394 	0.00080161
0.2401 	0.000736924
0.2408 	0.000534418
0.2415 	0.000345127
0.2422 	0.000179624
0.2429 	4.93104e-05
0.2436 	1.23244e-05
0.2443 	4.42813e-06
0.245 	4.46514e-06
0.2457 	3.30473e-06
0.2464 	2.18077e-06
0.2471 	1.1905e-06
0.2478 	3.06414e-07
0.2485 	1.29469e-07
0.2492 	6.19901e-08
0.2499 	5.5324e-08
0.2506 	4.28022e-08
0.2513 	2.95491e-08
0.252 	1.94779e-08
0.2527 	9.40662e-09
0.2534 	5.4599e-09
0.2541 	3.30543e-09
0.2548 	2.8643e-09
0.2555 	2.2635e-09
0.2562 	1.59884e-09
0.2569 	1.11374e-09
0.2576 	6.42465e-10
0.2583 	3.81717e-10
0.259 	2.28919e-10
0.2597 	2.00392e-10
0.2604 	1.65832e-10
0.2611 	1.26747e-10
0.2618 	9.62468e-11
0.2625 	6.80874e-11
0.2632 	4.89884e-11
0.2639 	3.60975e-11
0.2646 	3.17823e-11
0.2653 	2.71616e-11
0.266 	2.21335e-11
0.2667 	1.79722e-11
0.2674 	1.42924e-11
0.2681 	1.13344e-11
0.2688 	9.04532e-12
0.2695 	8.0062e-12
0.2702 	6.91087e-12
0.2709 	5.67503e-12
0.2716 	4.60063e-12
0.2723 	3.68768e-12
0.273 	2.91453e-12
0.2737 	2.3391e-12
0.2744 	2.06281e-12
0.2751 	1.7996e-12
0.2758 	1.47689e-12
0.2765 	1.18437e-12
0.2772 	9.46175e-13
0.2779 	7.33967e-13
0.2786 	5.91682e-13
0.2793 	5.15584e-13
0.28 	4.57537e-13
0.2807 	3.8016e-13
0.2814 	3.07114e-13
0.2821 	2.49949e-13
0.2828 	1.95594e-13
0.2835 	1.60432e-13
0.2842 	1.38192e-13
0.2849 	1.23132e-13
0.2856 	1.04007e-13
0.2863 	8.45842e-14
0.287 	7.01144e-14
0.2877 	5.56446e-14
0.2884 	4.58382e-14
0.2891 	3.87513e-14
0.2898 	3.43096e-14
0.2905 	2.89345e-14
0.2912 	2.3186e-14
0.2919 	1.89719e-14
0.2926 	1.48759e-14
0.2933 	1.18651e-14
0.294 	9.6441e-15
0.2947 	8.47571e-15
0.2954 	7.08739e-15
0.2961 	5.53412e-15
0.2968 	4.34784e-15
0.2975 	3.26165e-15
0.2982 	2.4537e-15
0.2989 	1.86543e-15
0.2996 	1.64078e-15
0.3003 	1.37524e-15
0.301 	1.05518e-15
0.3017 	7.96328e-16
0.3024 	5.71481e-16
0.3031 	4.01087e-16
0.3038 	2.81186e-16
0.3045 	2.48884e-16
0.3052 	2.11797e-16
0.3059 	1.62745e-16
0.3066 	1.20717e-16
0.3073 	8.57119e-17
0.308 	5.75957e-17
0.3087 	3.93445e-17
0.3094 	3.40175e-17
0.3101 	2.93767e-17
0.3108 	2.28884e-17
0.3115 	1.70482e-17
0.3122 	1.2375e-17
0.3129 	8.30002e-18
0.3136 	5.86007e-18
0.3143 	4.8348e-18
0.315 	4.19534e-18
0.3157 	3.31907e-18
0.3164 	2.49522e-18
0.3171 	1.86361e-18
0.3178 	1.26752e-18
0.3185 	9.21031e-19
0.3192 	7.30924e-19
0.3199 	6.27692e-19
0.3206 	5.04919e-19
0.3213 	3.81451e-19
0.322 	2.91287e-19
0.3227 	2.01124e-19
0.3234 	1.47617e-19
0.3241 	1.12697e-19
0.3248 	9.56632e-20
0.3255 	7.73717e-20
0.3262 	5.85772e-20
0.3269 	4.4972e-20
0.3276 	3.1766e-20
0.3283 	2.27481e-20
0.329 	1.65361e-20
0.3297 	1.39171e-20
0.3304 	1.12221e-20
0.3311 	8.47017e-21
0.3318 	6.39546e-21
0.3325 	4.50547e-21
0.3332 	3.09674e-21
0.3339 	2.0845e-21
0.3346 	1.75034e-21
0.3353 	1.40754e-21
0.336 	1.05324e-21
0.3367 	7.72669e-22
0.3374 	5.33071e-22
0.3381 	3.44424e-22
0.3388 	2.05437e-22
0.3395 	1.73071e-22
0.3402 	1.39745e-22
0.3409 	1.0402e-22
0.3416 	7.41317e-23
0.3423 	5.00797e-23
0.343 	3.01186e-23
0.3437 	1.60925e-23
0.3444 	1.29099e-23
0.3451 	1.05137e-23
0.3458 	7.83094e-24
0.3465 	5.46268e-24
0.3472 	3.66047e-24
0.3479 	2.06724e-24
0.3486 	1.05448e-24
0.3493 	7.33859e-25
0.35 	6.01997e-25
0.3507 	4.5012e-25
0.3514 	3.0908e-25
0.3521 	2.07778e-25
0.3528 	1.11936e-25
0.3535 	5.55971e-26
0.3542 	3.18155e-26
0.3549 	2.61207e-26
0.3556 	1.9712e-26
0.3563 	1.33423e-26
0.357 	9.02722e-27
0.3577 	4.71212e-27
0.3584 	2.27534e-27
0.3591 	9.90164e-28
0.3598 	8.14497e-28
0.3605 	6.2061e-28
0.3612 	4.19434e-28
0.3619 	2.82232e-28
0.3626 	1.49952e-28
0.3633 	6.74462e-29
0.364 	1.95221e-29
0.3647 	1.61116e-29
0.3654 	1.24105e-29
0.3661 	8.49162e-30
0.3668 	5.62896e-30
0.3675 	3.05438e-30
0.3682 	1.29915e-30
0.3689 	1.99959e-31
0.3696 	1.65624e-31
0.3703 	1.29092e-31
0.371 	8.96296e-32
0.3717 	5.88598e-32
0.3724 	3.29194e-32
0.3731 	1.36233e-32
0.3738 	7.82298e-34
0.3745 	6.5029e-34
0.3752 	5.12847e-34
0.3759 	3.61815e-34
0.3766 	2.37156e-34
0.3773 	1.38871e-34
0.378 	5.86024e-35
0.3787 	4.82222e-36
0.3794 	8.3442e-37
0.3801 	6.723e-37
0.3808 	4.8535e-37
0.3815 	3.27146e-37
0.3822 	2.20685e-37
0.3829 	1.20131e-37
0.3836 	3.6256e-38
0.3843 	1.67032e-38
0.385 	1.46921e-38
0.3857 	1.09221e-38
0.3864 	7.75463e-39
0.3871 	6.7966e-39
0.3878 	5.60249e-39
0.3885 	2.64645e-39
0.3892 	1.51102e-39
0.3899 	1.387e-39
0.3906 	1.05238e-39
0.3913 	7.03073e-40
0.392 	6.19197e-40
0.3927 	5.3532e-40
0.3934 	2.45542e-40
0.3941 	9.43088e-41
0.3948 	8.69312e-41
0.3955 	6.77175e-41
0.3962 	4.37694e-41
0.3969 	3.70752e-41
0.3976 	3.17083e-41
0.3983 	1.50851e-41
0.399 	2.86106e-42
0.3997 	2.66071e-42
0.4004 	2.15029e-42
0.4011 	1.40733e-42
0.4018 	1.12583e-42
0.4025 	9.70196e-43
0.4032 	5.13889e-43
0.4039 	4.8002e-44
0.4046 	4.64873e-44
0.4053 	3.98724e-44
0.406 	2.64573e-44
0.4067 	2.02197e-44
0.4074 	1.79697e-44
0.4081 	1.08434e-44
0.4088 	4.45232e-46
0.4095 	4.68489e-46
0.4102 	4.43658e-46
0.4109 	2.9861e-46
0.4116 	2.176e-46
0.4123 	2.00631e-46
0.413 	1.38979e-46
0.4137 	1.07263e-47
0.4144 	1.85254e-48
0.4151 	2.02538e-48
0.4158 	1.38491e-48
0.4165 	9.57498e-49
0.4172 	9.13614e-49
0.4179 	7.26802e-49
0.4186 	1.29371e-49
0.4193 	1.77512e-51
0.42 	2.31097e-51
0.4207 	1.60612e-51
0.4214 	1.04766e-51
0.4221 	1.02601e-51
0.4228 	9.28293e-52
0.4235 	2.44435e-52
0.4242 	2.75654e-55
0.4249 	3.87267e-55
0.4256 	2.9738e-55
0.4263 	1.8262e-55
0.427 	1.81105e-55
0.4277 	1.79589e-55
0.4284 	6.10138e-56
0.4291 	1.62794e-59
0.4298 	2.33989e-59
0.4305 	1.98679e-59
0.4312 	1.20767e-59
0.4319 	1.14406e-59
0.4326 	1.1355e-59
0.4333 	4.95617e-60
0.434 	1.13636e-63
0.4347 	1.68422e-63
0.4354 	1.58288e-63
0.4361 	9.94635e-64
0.4368 	8.64546e-64
0.4375 	8.59414e-64
0.4382 	4.58351e-64
0.4389 	1.19336e-67
0.4396 	1.82729e-67
0.4403 	1.90176e-67
0.441 	1.23026e-67
0.4417 	9.8738e-68
0.4424 	9.82625e-68
0.4431 	6.19313e-68
0.4438 	1.22467e-71
0.4445 	1.92947e-71
0.4452 	2.21969e-71
0.4459 	1.47345e-71
0.4466 	1.09771e-71
0.4473 	1.09247e-71
0.448 	7.94176e-72
0.4487 	5.30401e-73
0.4494 	1.49977e-75
0.4501 	1.82926e-75
0.4508 	1.3226e-75
0.4515 	9.94686e-76
0.4522 	9.88531e-76
0.4529 	8.12174e-76
0.4536 	1.38335e-76
0.4543 	-3.71238e-76
0.455 	-8.36013e-76
0.4557 	-3.78319e-76
0.4564 	-1.91275e-77
0.4571 	-2.1125e-77
0.4578 	-2.32915e-77
0.4585 	-2.68019e-77
0.4592 	-4.49812e-76
0.4599 	-1.10587e-75
0.4606 	-6.40843e-76
0.4613 	-3.56139e-77
0.462 	-3.68649e-77
0.4627 	-3.81159e-77
0.4634 	-4.0866e-77
0.4641 	-4.26858e-76
0.4648 	-1.19603e-75
0.4655 	-8.68597e-76
0.4662 	-1.02518e-76
0.4669 	-4.86521e-77
0.4676 	-4.9577e-77
0.4683 	-5.19852e-77
0.469 	-3.59172e-76
0.4697 	-1.21438e-75
0.4704 	-1.09372e-75
0.4711 	-2.41156e-76
0.4718 	-5.88914e-77
0.4725 	-5.94424e-77
0.4732 	-6.11543e-77
0.4739 	-2.54931e-76
0.4746 	-1.15093e-75
0.4753 	-1.2794e-75
0.476 	-3.84505e-76
0.4767 	-6.48274e-77
0.4774 	-6.47248e-77
0.4781 	-6.50103e-77
0.4788 	-1.27181e-76
0.4795 	-9.89459e-76
0.4802 	-1.35866e-75
0.4809 	-4.95167e-76
0.4816 	-6.30788e-77
0.4823 	-6.24069e-77
0.483 	-6.15741e-77
0.4837 	-6.04947e-77
0.4844 	-7.7498e-76
0.4851 	-1.3243e-75
0.4858 	-5.52394e-76
0.4865 	-5.58953e-77
0.4872 	-5.51435e-77
0.4879 	-5.4215e-77
0.4886 	-5.27607e-77
0.4893 	-5.793e-76
0.49 	-1.24983e-75
0.4907 	-5.77533e-76
0.4914 	-4.92647e-77
0.4921 	-4.91309e-77
0.4928 	-4.90563e-77
0.4935 	-4.94684e-77
0.4942 	-4.49198e-76
0.4949 	-1.07076e-75
0.4956 	-6.27988e-76
0.4963 	-5.22387e-77
0.497 	-5.39962e-77
0.4977 	-5.57538e-77
0.4984 	-6.25908e-77
0.4991 	-4.11052e-76
0.4998 	-1.10095e-75
0.5005 	-8.12537e-76
0.5012 	-1.32808e-76
0.5019 	-9.02773e-77
0.5026 	-9.67665e-77
0.5033 	-1.18649e-76
0.504 	-4.90336e-76
0.5047 	-1.48564e-75
0.5054 	-1.36163e-75
0.5061 	-3.98111e-76
0.5068 	-2.05038e-76
0.5075 	-2.22093e-76
0.5082 	-2.7459e-76
0.5089 	-6.98633e-76
0.5096 	-2.42337e-75
0.5103 	-2.70359e-75
0.511 	-1.05779e-75
0.5117 	-4.93089e-76
0.5124 	-5.29027e-76
0.5131 	-6.26097e-76
0.5138 	-9.87602e-76
0.5145 	-4.09617e-75
0.5152 	-5.47278e-75
0.5159 	-2.5195e-75
0.5166 	-1.0747e-75
0.5173 	-1.13844e-75
0.518 	-1.28274e-75
0.5187 	-1.55209e-75
0.5194 	-6.6374e-75
0.5201 	-1.05716e-74
0.5208 	-5.37684e-75
0.5215 	-2.07327e-75
0.5222 	-2.17397e-75
0.5229 	-2.35671e-75
0.5236 	-2.78747e-75
0.5243 	-1.00837e-74
0.525 	-1.92523e-74
0.5257 	-1.04819e-74
0.5264 	-3.62213e-75
0.5271 	-3.76817e-75
0.5278 	-3.96592e-75
0.5285 	-4.60315e-75
0.5292 	-1.42054e-74
0.5299 	-2.8788e-74
0.5306 	-1.88527e-74
0.5313 	-5.84628e-75
0.532 	-6.03804e-75
0.5327 	-6.22981e-75
0.5334 	-7.06372e-75
0.5341 	-1.82983e-74
0.5348 	-3.99079e-74
0.5355 	-3.11496e-74
0.5362 	-1.02442e-74
0.5369 	-8.95196e-75
0.5376 	-9.16852e-75
0.5383 	-1.00288e-74
0.539 	-2.11345e-74
0.5397 	-5.04251e-74
0.5404 	-4.66592e-74
0.5411 	-1.81011e-74
0.5418 	-1.21303e-74
0.5425 	-1.23199e-74
0.5432 	-1.30004e-74
0.5439 	-2.1349e-74
0.5446 	-5.69482e-74
0.5453 	-6.22628e-74
0.546 	-2.71979e-74
0.5467 	-1.47336e-74
0.5474 	-1.48255e-74
0.5481 	-1.51276e-74
0.5488 	-1.82999e-74
0.5495 	-5.6379e-74
0.5502 	-7.27242e-74
0.5509 	-3.47349e-74
0.5516 	-1.57142e-74
0.5523 	-1.56627e-74
0.553 	-1.55574e-74
0.5537 	-1.53675e-74
0.5544 	-4.82971e-74
0.5551 	-7.35778e-74
0.5558 	-3.76817e-74
0.5565 	-1.45436e-74
0.5572 	-1.43708e-74
0.5579 	-1.40475e-74
0.5586 	-1.32624e-74
0.5593 	-3.59463e-74
0.56 	-6.50306e-74
0.5607 	-3.52239e-74
0.5614 	-1.17573e-74
0.5621 	-1.15385e-74
0.5628 	-1.1238e-74
0.5635 	-1.02203e-74
0.5642 	-2.3781e-74
0.5649 	-4.54407e-74
0.5656 	-2.93451e-74
0.5663 	-8.54184e-75
0.567 	-8.34441e-75
0.5677 	-8.14698e-75
0.5684 	-7.25762e-75
0.5691 	-1.43591e-74
0.5698 	-2.94808e-74
0.5705 	-2.25848e-74
0.5712 	-6.88189e-75
0.5719 	-5.62006e-75
0.5726 	-5.46918e-75
0.5733 	-4.87183e-75
0.574 	-8.00882e-75
0.5747 	-1.80488e-74
0.5754 	-1.63752e-74
0.5761 	-5.91622e-75
0.5768 	-3.59157e-75
0.5775 	-3.48544e-75
0.5782 	-3.12272e-75
0.5789 	-4.10113e-75
0.5796 	-1.04548e-74
0.5803 	-1.12408e-74
0.581 	-4.60318e-75
0.5817 	-2.18729e-75
0.5824 	-2.11686e-75
0.5831 	-1.91363e-75
0.5838 	-1.88861e-75
0.5845 	-5.71491e-75
0.5852 	-7.30275e-75
0.5859 	-3.29444e-75
0.5866 	-1.26816e-75
0.5873 	-1.22394e-75
0.588 	-1.11944e-75
0.5887 	-9.1908e-76
0.5894 	-2.93649e-75
0.5901 	-4.48359e-75
0.5908 	-2.18538e-75
0.5915 	-6.98579e-76
0.5922 	-6.72355e-76
0.5929 	-6.23821e-76
0.5936 	-5.05733e-76
0.5943 	-1.41192e-75
0.595 	-2.59745e-75
0.5957 	-1.34899e-75
0.5964 	-3.64903e-76
0.5971 	-3.50238e-76
0.5978 	-3.30491e-76
0.5985 	-2.64822e-76
0.5992 	-6.31936e-76
0.5999 	-1.23948e-75
0.6006 	-7.7653e-76
0.6013 	-1.80424e-76
0.602 	-1.72704e-76
0.6027 	-1.64983e-76
0.6034 	-1.31744e-76
0.6041 	-2.6155e-76
0.6048 	-5.55562e-76
0.6055 	-4.17358e-76
0.6062 	-1.06268e-76
0.6069 	-8.04982e-77
0.6076 	-7.66781e-77
0.6083 	-6.21753e-77
0.609 	-9.92087e-77
0.6097 	-2.33422e-76
0.6104 	-2.09624e-76
0.6111 	-6.73177e-77
0.6118 	-3.54283e-77
0.6125 	-3.36538e-77
0.6132 	-2.7805e-77
0.6139 	-3.40105e-77
0.6146 	-9.17715e-77
0.6153 	-9.8482e-77
0.616 	-3.7125e-77
0.6167 	-1.47143e-77
0.6174 	-1.39409e-77
0.6181 	-1.17739e-77
0.6188 	-1.02736e-77
0.6195 	-3.37125e-77
0.6202 	-4.33298e-77
0.6209 	-1.8393e-77
0.6216 	-5.76639e-78
0.6223 	-5.4502e-78
0.623 	-4.71908e-78
0.6237 	-3.32114e-78
0.6244 	-1.15569e-77
0.6251 	-1.78853e-77
0.6258 	-8.32353e-78
0.6265 	-2.13328e-78
0.6272 	-2.01196e-78
0.6279 	-1.79065e-78
0.6286 	-1.25337e-78
0.6293 	-3.69313e-78
0.63 	-6.94477e-78
0.6307 	-3.47866e-78
0.6314 	-7.45903e-79
0.6321 	-7.02175e-79
0.6328 	-6.43807e-79
0.6335 	-4.49469e-79
0.6342 	-1.09866e-78
0.6349 	-2.21647e-78
0.6356 	-1.35467e-78
0.6363 	-2.46982e-79
0.637 	-2.32142e-79
0.6377 	-2.17302e-79
0.6384 	-1.53378e-79
0.6391 	-3.03415e-79
0.6398 	-6.69775e-79
0.6405 	-4.95592e-79
0.6412 	-1.05192e-79
0.6419 	-7.28869e-80
0.6426 	-6.81303e-80
0.6433 	-4.98893e-80
0.644 	-7.7234e-80
0.6447 	-1.92292e-79
0.6454 	-1.71625e-79
0.6461 	-4.91646e-80
0.6468 	-2.17865e-80
0.6475 	-2.0341e-80
0.6482 	-1.54888e-80
0.6489 	-1.77931e-80
0.6496 	-5.25528e-80
0.6503 	-5.65898e-80
0.651 	-1.96633e-80
0.6517 	-6.20639e-81
0.6524 	-5.78843e-81
0.6531 	-4.58922e-81
0.6538 	-3.53998e-81
0.6545 	-1.36442e-80
0.6552 	-1.78019e-80
0.6559 	-7.09354e-81
0.6566 	-1.68171e-81
0.6573 	-1.56658e-81
0.658 	-1.29367e-81
0.6587 	-7.6491e-82
0.6594 	-3.33608e-81
0.6601 	-5.32006e-81
0.6608 	-2.35033e-81
0.6615 	-4.30446e-82
0.6622 	-4.00332e-82
0.6629 	-3.44299e-82
0.6636 	-2.05428e-82
0.6643 	-7.55067e-82
0.665 	-1.49247e-81
0.6657 	-7.15101e-82
0.6664 	-1.02719e-82
0.6671 	-9.53196e-83
0.6678 	-8.53713e-83
0.6685 	-5.12038e-83
0.6692 	-1.54047e-82
0.6699 	-3.33005e-82
0.6706 	-1.9727e-82
0.6713 	-2.24077e-83
0.672 	-2.07317e-83
0.6727 	-1.90557e-83
0.6734 	-1.1618e-83
0.6741 	-2.73066e-83
0.6748 	-6.64103e-83
0.6755 	-4.82817e-83
0.6762 	-7.26027e-84
0.6769 	-4.01358e-84
0.6776 	-3.67293e-84
0.6783 	-2.34196e-84
0.679 	-3.99665e-84
0.6797 	-1.1446e-83
0.6804 	-1.01837e-83
0.6811 	-2.38765e-84
0.6818 	-6.6986e-85
0.6825 	-6.09844e-85
0.6832 	-4.07075e-85
0.6839 	-4.46499e-85
0.6846 	-1.63638e-84
0.6853 	-1.78399e-84
0.686 	-5.41934e-85
0.6867 	-9.2688e-86
0.6874 	-8.39059e-86
0.6881 	-5.88103e-86
0.6888 	-3.25253e-86
0.6895 	-1.84163e-85
0.6902 	-2.47382e-85
0.6909 	-8.95522e-86
0.6916 	-1.01304e-86
0.6923 	-9.11876e-87
0.693 	-6.74422e-87
0.6937 	-2.14646e-87
0.6944 	-1.52005e-86
0.6951 	-2.54175e-86
0.6958 	-1.04658e-86
0.6965 	-8.24911e-88
0.6972 	-7.43973e-88
0.6979 	-5.94649e-88
0.6986 	-2.25292e-88
0.6993 	-1.5737e-87
0.7 	-3.39056e-87
