0 	1
0.0007 	1
0.0014 	1
0.0021 	1
0.0028 	1
0.0035 	1
0.0042 	1
0.0049 	1
0.0056 	1
0.0063 	1
0.007 	1
0.0077 	1
0.0084 	1
0.0091 	1
0.0098 	1
0.0105 	1
0.0112 	1
0.0119 	1
0.0126 	1
0.0133 	1
0.014 	1
0.0147 	1
0.0154 	1
0.0161 	1
0.0168 	1
0.0175 	1
0.0182 	1
0.0189 	1
0.0196 	1
0.0203 	1
0.021 	1
0.0217 	1
0.0224 	1
0.0231 	1
0.0238 	1
0.0245 	1
0.0252 	1
0.0259 	1
0.0266 	1
0.0273 	1
0.028 	1
0.0287 	1
0.0294 	1
0.0301 	1
0.0308 	1
0.0315 	1
0.0322 	1
0.0329 	1
0.0336 	1
0.0343 	1
0.035 	1
0.0357 	1
0.0364 	1
0.0371 	1
0.0378 	1
0.0385 	1
0.0392 	1
0.0399 	1
0.0406 	1
0.0413 	1
0.042 	1
0.0427 	1
0.0434 	1
0.0441 	1
0.0448 	1
0.0455 	1
0.0462 	1
0.0469 	1
0.0476 	1
0.0483 	1
0.049 	1
0.0497 	1
0.0504 	1
0.0511 	1
0.0518 	1
0.0525 	1
0.0532 	1
0.0539 	1
0.0546 	1
0.0553 	1
0.056 	1
0.0567 	1
0.0574 	1
0.0581 	1
0.0588 	1
0.0595 	1
0.0602 	1
0.0609 	1
0.0616 	1
0.0623 	1
0.063 	1
0.0637 	1
0.0644 	1
0.0651 	1
0.0658 	1
0.0665 	1
0.0672 	1
0.0679 	1
0.0686 	1
0.0693 	1
0.07 	1
0.0707 	1
0.0714 	1
0.0721 	1
0.0728 	1
0.0735 	1
0.0742 	1
0.0749 	1
0.0756 	1
0.0763 	1
0.077 	1
0.0777 	1
0.0784 	1
0.0791 	1
0.0798 	1
0.0805 	1
0.0812 	1
0.0819 	1
0.0826 	1
0.0833 	1
0.084 	1
0.0847 	1
0.0854 	1
0.0861 	1
0.0868 	1
0.0875 	1
0.0882 	1
0.0889 	1
0.0896 	1
0.0903 	1
0.091 	1
0.0917 	1
0.0924 	1
0.0931 	1
0.0938 	1
0.0945 	1
0.0952 	1
0.0959 	1
0.0966 	1
0.0973 	1
0.098 	1
0.0987 	1
0.0994 	1
0.1001 	1
0.1008 	1
0.1015 	1
0.1022 	1
0.1029 	1
0.1036 	1
0.1043 	1
0.105 	1
0.1057 	1
0.1064 	1
0.1071 	1
0.1078 	1
0.1085 	1
0.1092 	1
0.1099 	1
0.1106 	1
0.1113 	1
0.112 	1
0.1127 	1
0.1134 	1
0.1141 	1
0.1148 	1
0.1155 	1
0.1162 	1
0.1169 	1
0.1176 	1
0.1183 	1
0.119 	1
0.1197 	1
0.1204 	1
0.1211 	1
0.1218 	1
0.1225 	1
0.1232 	1
0.1239 	1
0.1246 	1
0.1253 	1
0.126 	1
0.1267 	1
0.1274 	1
0.1281 	1
0.1288 	1
0.1295 	1
0.1302 	1
0.1309 	1
0.1316 	1
0.1323 	1
0.133 	1
0.1337 	1
0.1344 	1
0.1351 	1
0.1358 	1
0.1365 	1
0.1372 	1
0.1379 	1
0.1386 	1
0.1393 	1
0.14 	1
0.1407 	1
0.1414 	1
0.1421 	1
0.1428 	1
0.1435 	1
0.1442 	1
0.1449 	1
0.1456 	1
0.1463 	1
0.147 	1
0.1477 	1
0.1484 	1
0.1491 	1
0.1498 	1
0.1505 	1
0.1512 	1
0.1519 	1
0.1526 	1
0.1533 	1
0.154 	1
0.1547 	1
0.1554 	1
0.1561 	1
0.1568 	1
0.1575 	1
0.1582 	1
0.1589 	1
0.1596 	1
0.1603 	1
0.161 	1
0.1617 	1
0.1624 	1
0.1631 	1
0.1638 	1
0.1645 	1
0.1652 	1
0.1659 	1
0.1666 	1
0.1673 	1
0.168 	1
0.1687 	1
0.1694 	1
0.1701 	1
0.1708 	1
0.1715 	1
0.1722 	1
0.1729 	1
0.1736 	1
0.1743 	1
0.175 	1
0.1757 	1
0.1764 	1
0.1771 	1
0.1778 	1
0.1785 	1
0.1792 	1
0.1799 	1
0.1806 	1
0.1813 	1
0.182 	1
0.1827 	1
0.1834 	1
0.1841 	1
0.1848 	1
0.1855 	1
0.1862 	1
0.1869 	1
0.1876 	1
0.1883 	1
0.189 	1
0.1897 	1
0.1904 	1
0.1911 	1
0.1918 	1
0.1925 	1
0.1932 	1
0.1939 	1
0.1946 	1
0.1953 	1
0.196 	1
0.1967 	1
0.1974 	1
0.1981 	1
0.1988 	1
0.1995 	1
0.2002 	1
0.2009 	1
0.2016 	1
0.2023 	1
0.203 	1
0.2037 	1
0.2044 	1
0.2051 	1
0.2058 	1
0.2065 	1
0.2072 	1
0.2079 	1
0.2086 	1
0.2093 	1
0.21 	1
0.2107 	1
0.2114 	1
0.2121 	1
0.2128 	1
0.2135 	1
0.2142 	1
0.2149 	1
0.2156 	1
0.2163 	1
0.217 	1
0.2177 	1
0.2184 	1
0.2191 	1
0.2198 	1
0.2205 	1
0.2212 	1
0.2219 	1
0.2226 	1
0.2233 	1
0.224 	1
0.2247 	1
0.2254 	1
0.2261 	1
0.2268 	1
0.2275 	1
0.2282 	1
0.2289 	1
0.2296 	1
0.2303 	1
0.231 	1
0.2317 	1
0.2324 	1
0.2331 	1
0.2338 	1
0.2345 	1
0.2352 	1
0.2359 	1
0.2366 	1
0.2373 	1
0.238 	1
0.2387 	1
0.2394 	1
0.2401 	1
0.2408 	0.999999
0.2415 	0.999997
0.2422 	0.999994
0.2429 	0.999992
0.2436 	0.999989
0.2443 	0.999986
0.245 	0.999974
0.2457 	0.999922
0.2464 	0.99952
0.2471 	0.999117
0.2478 	0.998715
0.2485 	0.998313
0.2492 	0.997911
0.2499 	0.996753
0.2506 	0.995787
0.2513 	0.986163
0.252 	0.97636
0.2527 	0.966557
0.2534 	0.956754
0.2541 	0.94695
0.2548 	0.927846
0.2555 	0.905046
0.2562 	0.860404
0.2569 	0.811289
0.2576 	0.762175
0.2583 	0.71306
0.259 	0.663945
0.2597 	0.598776
0.2604 	0.514819
0.2611 	0.448207
0.2618 	0.388952
0.2625 	0.329696
0.2632 	0.270441
0.2639 	0.211186
0.2646 	0.16122
0.2653 	0.131402
0.266 	0.106219
0.2667 	0.0857753
0.2674 	0.0653322
0.2681 	0.044889
0.2688 	0.0244458
0.2695 	0.00719635
0.2702 	0.00615138
0.2709 	0.0049899
0.2716 	0.00405229
0.2723 	0.00311469
0.273 	0.00217709
0.2737 	0.0012395
0.2744 	0.000320665
0.2751 	0.000273395
0.2758 	0.000220701
0.2765 	0.00018094
0.2772 	0.000141179
0.2779 	0.000101418
0.2786 	6.16574e-05
0.2793 	2.18966e-05
0.28 	1.49954e-05
0.2807 	1.20701e-05
0.2814 	9.94393e-06
0.2821 	7.81776e-06
0.2828 	5.6916e-06
0.2835 	3.56544e-06
0.2842 	1.43928e-06
0.2849 	7.91923e-07
0.2856 	6.42073e-07
0.2863 	5.31203e-07
0.287 	4.2132e-07
0.2877 	3.11438e-07
0.2884 	2.01555e-07
0.2891 	9.16718e-08
0.2898 	4.32123e-08
0.2905 	3.54346e-08
0.2912 	2.91445e-08
0.2919 	2.32656e-08
0.2926 	1.73867e-08
0.2933 	1.15079e-08
0.294 	5.62913e-09
0.2947 	2.25726e-09
0.2954 	1.87814e-09
0.2961 	1.53353e-09
0.2968 	1.22714e-09
0.2975 	9.20787e-10
0.2982 	6.1443e-10
0.2989 	3.08074e-10
0.2996 	9.29801e-11
0.3003 	8.05116e-11
0.301 	6.65157e-11
0.3017 	5.44309e-11
0.3024 	4.23487e-11
0.3031 	3.02665e-11
0.3038 	1.81843e-11
0.3045 	8.00524e-12
0.3052 	7.40254e-12
0.3059 	6.69864e-12
0.3066 	6.10244e-12
0.3073 	5.50637e-12
0.308 	4.91029e-12
0.3087 	4.31422e-12
0.3094 	3.7273e-12
0.3101 	3.54211e-12
0.3108 	3.33394e-12
0.3115 	3.13442e-12
0.3122 	2.93514e-12
0.3129 	2.73587e-12
0.3136 	2.53659e-12
0.3143 	2.33732e-12
0.315 	2.14438e-12
0.3157 	1.93666e-12
0.3164 	1.77195e-12
0.3171 	1.60767e-12
0.3178 	1.44338e-12
0.3185 	1.2791e-12
0.3192 	1.11482e-12
0.3199 	9.93496e-13
0.3206 	8.74651e-13
0.3213 	7.86091e-13
0.322 	6.98588e-13
0.3227 	6.11084e-13
0.3234 	5.2358e-13
0.3241 	4.36076e-13
0.3248 	3.7666e-13
0.3255 	3.31601e-13
0.3262 	2.95174e-13
0.3269 	2.60982e-13
0.3276 	2.26801e-13
0.3283 	1.92621e-13
0.329 	1.5844e-13
0.3297 	1.32796e-13
0.3304 	1.1583e-13
0.3311 	1.01223e-13
0.3318 	8.82963e-14
0.3325 	7.53842e-14
0.3332 	6.24722e-14
0.3339 	4.95601e-14
0.3346 	3.92147e-14
0.3353 	3.41482e-14
0.336 	2.93607e-14
0.3367 	2.53465e-14
0.3374 	2.13416e-14
0.3381 	1.73368e-14
0.3388 	1.33319e-14
0.3395 	9.80056e-15
0.3402 	8.56032e-15
0.3409 	7.25431e-15
0.3416 	6.21231e-15
0.3423 	5.17427e-15
0.343 	4.13622e-15
0.3437 	3.09818e-15
0.3444 	2.07828e-15
0.3451 	1.82867e-15
0.3458 	1.52906e-15
0.3465 	1.30031e-15
0.3472 	1.07284e-15
0.3479 	8.45376e-16
0.3486 	6.1791e-16
0.3493 	3.90443e-16
0.35 	3.27588e-16
0.3507 	2.70658e-16
0.3514 	2.2882e-16
0.3521 	1.87308e-16
0.3528 	1.45797e-16
0.3535 	1.04285e-16
0.3542 	6.27734e-17
0.3549 	4.78017e-17
0.3556 	3.95355e-17
0.3563 	3.32192e-17
0.357 	2.70243e-17
0.3577 	2.08294e-17
0.3584 	1.46345e-17
0.3591 	8.43958e-18
0.3598 	5.5807e-18
0.3605 	4.68114e-18
0.3612 	3.88664e-18
0.3619 	3.14715e-18
0.3626 	2.40835e-18
0.3633 	1.66954e-18
0.364 	9.30736e-19
0.3647 	5.05031e-19
0.3654 	4.32449e-19
0.3661 	3.55795e-19
0.3668 	2.8728e-19
0.3675 	2.18979e-19
0.3682 	1.50678e-19
0.3689 	8.23765e-20
0.3696 	3.44054e-20
0.3703 	3.03345e-20
0.371 	2.48592e-20
0.3717 	2.00959e-20
0.3724 	1.53603e-20
0.3731 	1.06247e-20
0.3738 	5.88905e-21
0.3745 	1.92239e-21
0.3752 	1.7603e-21
0.3759 	1.45827e-21
0.3766 	1.1979e-21
0.3773 	9.39595e-22
0.378 	6.8129e-22
0.3787 	4.22984e-22
0.3794 	1.7036e-22
0.3801 	1.58456e-22
0.3808 	1.34971e-22
0.3815 	1.1495e-22
0.3822 	9.50013e-23
0.3829 	7.50529e-23
0.3836 	5.51045e-23
0.3843 	3.5156e-23
0.385 	3.04214e-23
0.3857 	2.5583e-23
0.3864 	2.17587e-23
0.3871 	1.79313e-23
0.3878 	1.41039e-23
0.3885 	1.02765e-23
0.3892 	6.44906e-24
0.3899 	5.14186e-24
0.3906 	4.3127e-24
0.3913 	3.61627e-24
0.392 	2.9252e-24
0.3927 	2.23412e-24
0.3934 	1.54305e-24
0.3941 	8.51976e-25
0.3948 	5.51054e-25
0.3955 	4.71765e-25
0.3962 	3.92059e-25
0.3969 	3.15979e-25
0.3976 	2.39911e-25
0.3983 	1.63843e-25
0.399 	8.77755e-26
0.3997 	4.49636e-26
0.4004 	3.93494e-26
0.4011 	3.24734e-26
0.4018 	2.61232e-26
0.4025 	1.97753e-26
0.4032 	1.34275e-26
0.4039 	7.07964e-27
0.4046 	2.66241e-27
0.4053 	2.40584e-27
0.406 	1.97544e-27
0.4067 	1.58659e-27
0.4074 	1.19805e-27
0.4081 	8.09507e-28
0.4088 	4.20967e-28
0.4095 	9.6712e-29
0.4102 	9.15472e-29
0.4109 	7.51363e-29
0.4116 	6.03817e-29
0.4123 	4.5651e-29
0.413 	3.09203e-29
0.4137 	1.61896e-29
0.4144 	1.7941e-30
0.4151 	1.81411e-30
0.4158 	1.49634e-30
0.4165 	1.20581e-30
0.4172 	9.16116e-31
0.4179 	6.26423e-31
0.4186 	3.3673e-31
0.4193 	4.70378e-32
0.42 	1.33274e-32
0.4207 	1.10969e-32
0.4214 	8.98268e-33
0.4221 	6.87976e-33
0.4228 	4.77685e-33
0.4235 	2.67393e-33
0.4242 	5.71017e-34
0.4249 	1.9496e-35
0.4256 	1.70951e-35
0.4263 	1.39064e-35
0.427 	1.0751e-35
0.4277 	7.5955e-36
0.4284 	4.44002e-36
0.4291 	1.28455e-36
0.4298 	3.21948e-39
0.4305 	2.97799e-39
0.4312 	2.43392e-39
0.4319 	1.89842e-39
0.4326 	1.36354e-39
0.4333 	8.28654e-40
0.434 	2.9377e-40
0.4347 	6.28898e-44
0.4354 	6.1039e-44
0.4361 	5.01381e-44
0.4368 	3.94195e-44
0.4375 	2.87435e-44
0.4382 	1.80676e-44
0.4389 	7.39156e-45
0.4396 	3.18034e-48
0.4403 	3.23578e-48
0.441 	2.67267e-48
0.4417 	2.11755e-48
0.4424 	1.56544e-48
0.4431 	1.01332e-48
0.4438 	4.61207e-49
0.4445 	1.76667e-52
0.4452 	1.88008e-52
0.4459 	1.55959e-52
0.4466 	1.24445e-52
0.4473 	9.31692e-53
0.448 	6.18937e-53
0.4487 	3.06182e-53
0.4494 	3.03348e-56
0.4501 	2.77517e-56
0.4508 	2.23041e-56
0.4515 	1.79525e-56
0.4522 	1.36254e-56
0.4529 	9.2982e-57
0.4536 	4.97103e-57
0.4543 	6.4386e-58
0.455 	9.95732e-59
0.4557 	7.78244e-59
0.4564 	6.29984e-59
0.4571 	4.82797e-59
0.4578 	3.35611e-59
0.4585 	1.88425e-59
0.4592 	4.12388e-60
0.4599 	2.14768e-61
0.4606 	1.72094e-61
0.4613 	1.3968e-61
0.462 	1.08015e-61
0.4627 	7.63489e-62
0.4634 	4.46832e-62
0.4641 	1.30175e-62
0.4648 	1.26805e-64
0.4655 	1.08104e-64
0.4662 	8.78816e-65
0.4669 	6.85602e-65
0.4676 	4.9252e-65
0.4683 	2.99439e-65
0.469 	1.06357e-65
0.4697 	1.6399e-68
0.4704 	1.46065e-68
0.4711 	1.19203e-68
0.4718 	9.37955e-69
0.4725 	6.84013e-69
0.4732 	4.30071e-69
0.4739 	1.76128e-69
0.4746 	1.44207e-72
0.4753 	1.30786e-72
0.476 	1.07082e-72
0.4767 	8.44512e-73
0.4774 	6.1912e-73
0.4781 	3.93728e-73
0.4788 	1.68336e-73
0.4795 	-2.373e-74
0.4802 	-3.32326e-74
0.4809 	-2.08106e-74
0.4816 	-2.16594e-74
0.4823 	-2.16815e-74
0.483 	-2.17036e-74
0.4837 	-2.17257e-74
0.4844 	-2.22457e-74
0.4851 	-3.92449e-74
0.4858 	-2.18914e-74
0.4865 	-2.22342e-74
0.4872 	-2.22357e-74
0.4879 	-2.22372e-74
0.4886 	-2.22386e-74
0.4893 	-2.22401e-74
0.49 	-4.35983e-74
0.4907 	-2.22014e-74
0.4914 	-2.19394e-74
0.4921 	-2.194e-74
0.4928 	-2.19406e-74
0.4935 	-2.19412e-74
0.4942 	-2.19418e-74
0.4949 	-3.95738e-74
0.4956 	-2.24351e-74
0.4963 	-2.09233e-74
0.497 	-2.09231e-74
0.4977 	-2.0923e-74
0.4984 	-2.09229e-74
0.4991 	-2.09227e-74
0.4998 	-3.44574e-74
0.5005 	-2.46548e-74
0.5012 	-1.94425e-74
0.5019 	-1.93155e-74
0.5026 	-1.93147e-74
0.5033 	-1.93139e-74
0.504 	-1.93132e-74
0.5047 	-2.8782e-74
0.5054 	-2.57661e-74
0.5061 	-1.77657e-74
0.5068 	-1.72874e-74
0.5075 	-1.72862e-74
0.5082 	-1.7285e-74
0.5089 	-1.72838e-74
0.5096 	-2.30525e-74
0.5103 	-2.57477e-74
0.511 	-1.59126e-74
0.5117 	-1.50252e-74
0.5124 	-1.50237e-74
0.5131 	-1.50222e-74
0.5138 	-1.50207e-74
0.5145 	-1.7685e-74
0.5152 	-2.47103e-74
0.5159 	-1.39784e-74
0.5166 	-1.27069e-74
0.5173 	-1.27053e-74
0.518 	-1.27036e-74
0.5187 	-1.2702e-74
0.5194 	-1.29707e-74
0.5201 	-2.28664e-74
0.5208 	-1.20496e-74
0.5215 	-1.04831e-74
0.5222 	-1.04814e-74
0.5229 	-1.04798e-74
0.5236 	-1.04781e-74
0.5243 	-1.04765e-74
0.525 	-2.04855e-74
0.5257 	-1.02008e-74
0.5264 	-8.46352e-75
0.5271 	-8.46197e-75
0.5278 	-8.46042e-75
0.5285 	-8.45887e-75
0.5292 	-8.45732e-75
0.5299 	-1.5212e-74
0.5306 	-8.6296e-75
0.5313 	-6.71223e-75
0.532 	-6.71085e-75
0.5327 	-6.70946e-75
0.5334 	-6.70808e-75
0.5341 	-6.70669e-75
0.5348 	-1.10134e-74
0.5355 	-7.88377e-75
0.5362 	-5.36421e-75
0.5369 	-5.24895e-75
0.5376 	-5.24776e-75
0.5383 	-5.24657e-75
0.539 	-5.24538e-75
0.5397 	-7.79369e-75
0.5404 	-6.97786e-75
0.5411 	-4.34141e-75
0.5418 	-4.06298e-75
0.5425 	-4.06199e-75
0.5432 	-4.061e-75
0.5439 	-4.06e-75
0.5446 	-5.3989e-75
0.5453 	-6.02756e-75
0.546 	-3.48704e-75
0.5467 	-3.11807e-75
0.5474 	-3.11726e-75
0.5481 	-3.11645e-75
0.5488 	-3.11563e-75
0.5495 	-3.65806e-75
0.5502 	-5.10458e-75
0.5509 	-2.77885e-75
0.5516 	-2.37087e-75
0.5523 	-2.37021e-75
0.553 	-2.36956e-75
0.5537 	-2.3689e-75
0.5544 	-2.41365e-75
0.5551 	-4.24355e-75
0.5558 	-2.19448e-75
0.5565 	-1.78025e-75
0.5572 	-1.77971e-75
0.5579 	-1.77916e-75
0.5586 	-1.77862e-75
0.5593 	-1.77807e-75
0.56 	-3.45631e-75
0.5607 	-1.71321e-75
0.5614 	-1.31338e-75
0.5621 	-1.3129e-75
0.5628 	-1.31242e-75
0.5635 	-1.31195e-75
0.5642 	-1.31147e-75
0.5649 	-2.3434e-75
0.5656 	-1.33463e-75
0.5663 	-9.46841e-76
0.567 	-9.46384e-76
0.5677 	-9.45926e-76
0.5684 	-9.45469e-76
0.5691 	-9.45012e-76
0.5698 	-1.54059e-75
0.5705 	-1.10591e-75
0.5712 	-6.86082e-76
0.5719 	-6.63713e-76
0.5726 	-6.6324e-76
0.5733 	-6.62768e-76
0.574 	-6.62295e-76
0.5747 	-9.76424e-76
0.5754 	-8.75065e-76
0.5761 	-5.01358e-76
0.5768 	-4.51826e-76
0.5775 	-4.5133e-76
0.5782 	-4.50834e-76
0.5789 	-4.50338e-76
0.5796 	-5.9418e-76
0.5803 	-6.62099e-76
0.581 	-3.57773e-76
0.5817 	-2.98498e-76
0.5824 	-2.97998e-76
0.5831 	-2.97499e-76
0.5838 	-2.97e-76
0.5845 	-3.46267e-76
0.5852 	-4.802e-76
0.5859 	-2.48959e-76
0.5866 	-1.91597e-76
0.5873 	-1.91131e-76
0.588 	-1.90665e-76
0.5887 	-1.90199e-76
0.5894 	-1.92852e-76
0.5901 	-3.34947e-76
0.5908 	-1.68793e-76
0.5915 	-1.19674e-76
0.5922 	-1.19277e-76
0.5929 	-1.1888e-76
0.5936 	-1.18483e-76
0.5943 	-1.18086e-76
0.595 	-2.25474e-76
0.5957 	-1.11499e-76
0.5964 	-7.28442e-77
0.5971 	-7.25343e-77
0.5978 	-7.22243e-77
0.5985 	-7.19144e-77
0.5992 	-7.16045e-77
0.5999 	-1.2568e-76
0.6006 	-7.24458e-77
0.6013 	-4.32584e-77
0.602 	-4.30349e-77
0.6027 	-4.28115e-77
0.6034 	-4.25881e-77
0.6041 	-4.23647e-77
0.6048 	-6.78922e-77
0.6055 	-4.90552e-77
0.6062 	-2.6412e-77
0.6069 	-2.49376e-77
0.6076 	-2.47867e-77
0.6083 	-2.46358e-77
0.609 	-2.44849e-77
0.6097 	-3.5536e-77
0.6104 	-3.18927e-77
0.6111 	-1.65753e-77
0.6118 	-1.41272e-77
0.6125 	-1.40304e-77
0.6132 	-1.39335e-77
0.6139 	-1.38367e-77
0.6146 	-1.80069e-77
0.6153 	-2.00031e-77
0.616 	-1.01542e-77
0.6167 	-7.83024e-78
0.6174 	-7.77054e-78
0.6181 	-7.71084e-78
0.6188 	-7.65114e-78
0.6195 	-8.81884e-78
0.6202 	-1.21444e-77
0.6209 	-6.07358e-78
0.6216 	-4.24902e-78
0.6223 	-4.21342e-78
0.623 	-4.17783e-78
0.6237 	-4.14223e-78
0.6244 	-4.16307e-78
0.6251 	-7.15491e-78
0.6258 	-3.54789e-78
0.6265 	-2.25851e-78
0.6272 	-2.2379e-78
0.6279 	-2.21729e-78
0.6286 	-2.19669e-78
0.6293 	-2.17608e-78
0.63 	-4.09839e-78
0.6307 	-2.02466e-78
0.6314 	-1.17641e-78
0.6321 	-1.1648e-78
0.6328 	-1.15318e-78
0.6335 	-1.14157e-78
0.6342 	-1.12995e-78
0.6349 	-1.95826e-78
0.6356 	-1.13641e-78
0.6363 	-6.00678e-79
0.637 	-5.94294e-79
0.6377 	-5.87909e-79
0.6384 	-5.81524e-79
0.6391 	-5.7514e-79
0.6398 	-9.10812e-79
0.6405 	-6.60266e-79
0.6412 	-3.21455e-79
0.6419 	-2.97269e-79
0.6426 	-2.93841e-79
0.6433 	-2.90414e-79
0.644 	-2.86987e-79
0.6447 	-4.11884e-79
0.6454 	-3.69862e-79
0.6461 	-1.79075e-79
0.6468 	-1.45734e-79
0.6475 	-1.43936e-79
0.6482 	-1.42137e-79
0.6489 	-1.40338e-79
0.6496 	-1.80727e-79
0.6503 	-2.00389e-79
0.651 	-9.69558e-80
0.6517 	-6.99315e-80
0.6524 	-6.90075e-80
0.6531 	-6.80834e-80
0.6538 	-6.71594e-80
0.6545 	-7.66606e-80
0.6552 	-1.0512e-79
0.6559 	-5.0991e-80
0.6566 	-3.27347e-80
0.6573 	-3.22698e-80
0.658 	-3.18049e-80
0.6587 	-3.134e-80
0.6594 	-3.12222e-80
0.6601 	-5.32929e-80
0.6608 	-2.59839e-80
0.6615 	-1.48407e-80
0.6622 	-1.46117e-80
0.6629 	-1.43828e-80
0.6636 	-1.41539e-80
0.6643 	-1.39249e-80
0.665 	-2.59457e-80
0.6657 	-1.27538e-80
0.6664 	-6.43108e-81
0.6671 	-6.32121e-81
0.6678 	-6.21133e-81
0.6685 	-6.10146e-81
0.6692 	-5.99159e-81
0.6699 	-1.02678e-80
0.6706 	-5.98573e-81
0.6713 	-2.60701e-81
0.672 	-2.5562e-81
0.6727 	-2.50538e-81
0.6734 	-2.45457e-81
0.6741 	-2.40376e-81
0.6748 	-3.76009e-81
0.6755 	-2.73099e-81
0.6762 	-1.06538e-81
0.6769 	-9.35163e-82
0.6776 	-9.1302e-82
0.6783 	-8.90876e-82
0.679 	-8.68732e-82
0.6797 	-1.22857e-81
0.6804 	-1.10268e-81
0.6811 	-4.2992e-82
0.6818 	-2.95442e-82
0.6825 	-2.8668e-82
0.6832 	-2.77918e-82
0.6839 	-2.69156e-82
0.6846 	-3.39778e-82
0.6853 	-3.75666e-82
0.686 	-1.485e-82
0.6867 	-7.53991e-83
0.6874 	-7.24197e-83
0.6881 	-6.94403e-83
0.6888 	-6.64609e-83
0.6895 	-7.35332e-83
0.6902 	-1.00285e-82
0.6909 	-4.09537e-83
0.6916 	-1.4011e-83
0.6923 	-1.32081e-83
0.693 	-1.24051e-83
0.6937 	-1.16022e-83
0.6944 	-1.0906e-83
0.6951 	-1.84565e-83
0.6958 	-7.67803e-84
0.6965 	-7.02119e-85
0.6972 	-5.54219e-85
0.6979 	-4.06319e-85
0.6986 	-2.58419e-85
0.6993 	-1.10519e-85
0.7 	-7.70857e-86
