0 	1
0.0007 	1
0.0014 	1
0.0021 	1
0.0028 	1
0.0035 	1
0.0042 	1
0.0049 	1
0.0056 	1
0.0063 	1
0.007 	1
0.0077 	1
0.0084 	1
0.0091 	1
0.0098 	1
0.0105 	1
0.0112 	1
0.0119 	1
0.0126 	1
0.0133 	1
0.014 	1
0.0147 	1
0.0154 	1
0.0161 	1
0.0168 	1
0.0175 	1
0.0182 	1
0.0189 	1
0.0196 	1
0.0203 	1
0.021 	1
0.0217 	1
0.0224 	1
0.0231 	1
0.0238 	1
0.0245 	1
0.0252 	1
0.0259 	1
0.0266 	1
0.0273 	1
0.028 	1
0.0287 	1
0.0294 	1
0.0301 	1
0.0308 	1
0.0315 	1
0.0322 	1
0.0329 	1
0.0336 	1
0.0343 	1
0.035 	1
0.0357 	1
0.0364 	1
0.0371 	1
0.0378 	1
0.0385 	1
0.0392 	1
0.0399 	1
0.0406 	1
0.0413 	1
0.042 	1
0.0427 	1
0.0434 	1
0.0441 	1
0.0448 	1
0.0455 	1
0.0462 	1
0.0469 	1
0.0476 	1
0.0483 	1
0.049 	1
0.0497 	1
0.0504 	1
0.0511 	1
0.0518 	1
0.0525 	1
0.0532 	1
0.0539 	1
0.0546 	1
0.0553 	1
0.056 	1
0.0567 	1
0.0574 	1
0.0581 	1
0.0588 	1
0.0595 	1
0.0602 	1
0.0609 	1
0.0616 	1
0.0623 	1
0.063 	1
0.0637 	1
0.0644 	1
0.0651 	1
0.0658 	1
0.0665 	1
0.0672 	1
0.0679 	1
0.0686 	1
0.0693 	1
0.07 	1
0.0707 	1
0.0714 	1
0.0721 	1
0.0728 	1
0.0735 	1
0.0742 	1
0.0749 	1
0.0756 	1
0.0763 	1
0.077 	1
0.0777 	1
0.0784 	1
0.0791 	1
0.0798 	1
0.0805 	1
0.0812 	1
0.0819 	1
0.0826 	1
0.0833 	1
0.084 	1
0.0847 	1
0.0854 	1
0.0861 	1
0.0868 	1
0.0875 	1
0.0882 	1
0.0889 	1
0.0896 	1
0.0903 	1
0.091 	1
0.0917 	1
0.0924 	1
0.0931 	1
0.0938 	1
0.0945 	1
0.0952 	1
0.0959 	1
0.0966 	1
0.0973 	1
0.098 	1
0.0987 	1
0.0994 	1
0.1001 	1
0.1008 	1
0.1015 	1
0.1022 	1
0.1029 	1
0.1036 	1
0.1043 	1
0.105 	1
0.1057 	1
0.1064 	1
0.1071 	1
0.1078 	1
0.1085 	1
0.1092 	1
0.1099 	1
0.1106 	1
0.1113 	1
0.112 	1
0.1127 	1
0.1134 	1
0.1141 	1
0.1148 	1
0.1155 	1
0.1162 	1
0.1169 	1
0.1176 	1
0.1183 	1
0.119 	1
0.1197 	1
0.1204 	1
0.1211 	1
0.1218 	1
0.1225 	1
0.1232 	1
0.1239 	1
0.1246 	1
0.1253 	1
0.126 	1
0.1267 	1
0.1274 	1
0.1281 	1
0.1288 	1
0.1295 	1
0.1302 	1
0.1309 	1
0.1316 	1
0.1323 	1
0.133 	1
0.1337 	1
0.1344 	1
0.1351 	1
0.1358 	1
0.1365 	1
0.1372 	1
0.1379 	1
0.1386 	1
0.1393 	1
0.14 	1
0.1407 	1
0.1414 	1
0.1421 	1
0.1428 	1
0.1435 	1
0.1442 	1
0.1449 	1
0.1456 	1
0.1463 	1
0.147 	1
0.1477 	1
0.1484 	1
0.1491 	1
0.1498 	1
0.1505 	1
0.1512 	1
0.1519 	1
0.1526 	1
0.1533 	1
0.154 	1
0.1547 	1
0.1554 	1
0.1561 	1
0.1568 	1
0.1575 	1
0.1582 	1
0.1589 	1
0.1596 	1
0.1603 	1
0.161 	1
0.1617 	1
0.1624 	1
0.1631 	1
0.1638 	1
0.1645 	1
0.1652 	1
0.1659 	1
0.1666 	1
0.1673 	1
0.168 	1
0.1687 	1
0.1694 	1
0.1701 	1
0.1708 	1
0.1715 	1
0.1722 	1
0.1729 	1
0.1736 	1
0.1743 	1
0.175 	1
0.1757 	1
0.1764 	1
0.1771 	1
0.1778 	1
0.1785 	1
0.1792 	1
0.1799 	1
0.1806 	1
0.1813 	1
0.182 	1
0.1827 	1
0.1834 	1
0.1841 	1
0.1848 	1
0.1855 	1
0.1862 	1
0.1869 	1
0.1876 	1
0.1883 	1
0.189 	1
0.1897 	1
0.1904 	1
0.1911 	1
0.1918 	1
0.1925 	1
0.1932 	1
0.1939 	1
0.1946 	1
0.1953 	1
0.196 	1
0.1967 	1
0.1974 	1
0.1981 	1
0.1988 	1
0.1995 	1
0.2002 	1
0.2009 	1
0.2016 	1
0.2023 	1
0.203 	1
0.2037 	1
0.2044 	1
0.2051 	1
0.2058 	1
0.2065 	1
0.2072 	1
0.2079 	1
0.2086 	1
0.2093 	1
0.21 	1
0.2107 	1
0.2114 	1
0.2121 	1
0.2128 	1
0.2135 	1
0.2142 	1
0.2149 	1
0.2156 	1
0.2163 	1
0.217 	1
0.2177 	1
0.2184 	1
0.2191 	1
0.2198 	1
0.2205 	1
0.2212 	1
0.2219 	1
0.2226 	1
0.2233 	1
0.224 	1
0.2247 	1
0.2254 	1
0.2261 	1
0.2268 	1
0.2275 	1
0.2282 	1
0.2289 	1
0.2296 	1
0.2303 	1
0.231 	1
0.2317 	1
0.2324 	0.999999
0.2331 	0.999968
0.2338 	0.999935
0.2345 	0.999902
0.2352 	0.999887
0.2359 	0.999917
0.2366 	0.999871
0.2373 	0.999749
0.238 	0.998194
0.2387 	0.996272
0.2394 	0.994209
0.2401 	0.992591
0.2408 	0.99371
0.2415 	0.992916
0.2422 	0.988681
0.2429 	0.973888
0.2436 	0.953496
0.2443 	0.928886
0.245 	0.903126
0.2457 	0.898514
0.2464 	0.888604
0.2471 	0.859273
0.2478 	0.817451
0.2485 	0.763652
0.2492 	0.693938
0.2499 	0.615381
0.2506 	0.54289
0.2513 	0.472458
0.252 	0.415664
0.2527 	0.361908
0.2534 	0.313377
0.2541 	0.272187
0.2548 	0.238337
0.2555 	0.187795
0.2562 	0.130577
0.2569 	0.0893991
0.2576 	0.0552355
0.2583 	0.0410139
0.259 	0.0329753
0.2597 	0.0360664
0.2604 	0.0315418
0.2611 	0.0213055
0.2618 	0.0120928
0.2625 	0.00380493
0.2632 	0.00276444
0.2639 	0.00200718
0.2646 	0.0022885
0.2653 	0.00216025
0.266 	0.00148591
0.2667 	0.000858879
0.2674 	0.000258139
0.2681 	0.000167499
0.2688 	0.000115415
0.2695 	0.000133208
0.2702 	0.000134397
0.2709 	9.40736e-05
0.2716 	5.57915e-05
0.2723 	1.9551e-05
0.273 	9.56847e-06
0.2737 	6.31421e-06
0.2744 	6.9457e-06
0.2751 	7.43759e-06
0.2758 	5.29831e-06
0.2765 	3.24288e-06
0.2772 	1.33839e-06
0.2779 	5.64218e-07
0.2786 	3.90353e-07
0.2793 	4.05105e-07
0.28 	4.71301e-07
0.2807 	3.40004e-07
0.2814 	2.11407e-07
0.2821 	9.27053e-08
0.2828 	2.98565e-08
0.2835 	2.06206e-08
0.2842 	1.96962e-08
0.2849 	2.33895e-08
0.2856 	1.81544e-08
0.2863 	1.1465e-08
0.287 	5.21484e-09
0.2877 	1.105e-09
0.2884 	6.81494e-10
0.2891 	5.02824e-10
0.2898 	5.68996e-10
0.2905 	4.70703e-10
0.2912 	3.06623e-10
0.2919 	1.54651e-10
0.2926 	3.44246e-11
0.2933 	2.06747e-11
0.294 	1.16999e-11
0.2947 	1.13203e-11
0.2954 	1.06101e-11
0.2961 	9.6521e-12
0.2968 	8.81419e-12
0.2975 	8.04528e-12
0.2982 	7.68459e-12
0.2989 	7.35702e-12
0.2996 	7.15089e-12
0.3003 	6.99711e-12
0.301 	6.91313e-12
0.3017 	6.70226e-12
0.3024 	6.4209e-12
0.3031 	6.07423e-12
0.3038 	5.7092e-12
0.3045 	5.16107e-12
0.3052 	4.61115e-12
0.3059 	4.05676e-12
0.3066 	3.56709e-12
0.3073 	3.14213e-12
0.308 	2.80261e-12
0.3087 	2.48502e-12
0.3094 	2.28726e-12
0.3101 	2.08881e-12
0.3108 	1.83084e-12
0.3115 	1.59141e-12
0.3122 	1.38534e-12
0.3129 	1.23262e-12
0.3136 	1.10828e-12
0.3143 	1.02444e-12
0.315 	9.51643e-13
0.3157 	8.20662e-13
0.3164 	6.95457e-13
0.3171 	5.91427e-13
0.3178 	5.13761e-13
0.3185 	4.61428e-13
0.3192 	4.26252e-13
0.3199 	4.00607e-13
0.3206 	3.42161e-13
0.3213 	2.79299e-13
0.322 	2.30114e-13
0.3227 	1.91383e-13
0.3234 	1.7068e-13
0.3241 	1.57257e-13
0.3248 	1.51116e-13
0.3255 	1.29374e-13
0.3262 	1.01391e-13
0.3269 	7.95584e-14
0.3276 	6.14079e-14
0.3283 	5.43636e-14
0.329 	4.96553e-14
0.3297 	4.91516e-14
0.3304 	4.28612e-14
0.3311 	3.22306e-14
0.3318 	2.35085e-14
0.3325 	1.58076e-14
0.3332 	1.37698e-14
0.3339 	1.22453e-14
0.3346 	1.26028e-14
0.3353 	1.14604e-14
0.336 	8.31821e-15
0.3367 	5.58729e-15
0.3374 	3.08486e-15
0.3381 	2.50564e-15
0.3388 	2.09771e-15
0.3395 	2.27441e-15
0.3402 	2.21747e-15
0.3409 	1.57642e-15
0.3416 	9.88145e-16
0.3423 	4.52644e-16
0.343 	2.88926e-16
0.3437 	2.20799e-16
0.3444 	2.48744e-16
0.3451 	2.67863e-16
0.3458 	1.89689e-16
0.3465 	1.14738e-16
0.3472 	4.55875e-17
0.3479 	1.77696e-17
0.3486 	1.19568e-17
0.3493 	1.30361e-17
0.35 	1.59951e-17
0.3507 	1.14304e-17
0.3514 	6.92794e-18
0.3521 	2.65336e-18
0.3528 	4.50745e-19
0.3535 	2.41393e-19
0.3542 	2.09457e-19
0.3549 	2.76087e-19
0.3556 	2.16125e-19
0.3563 	1.35241e-19
0.357 	5.66397e-20
0.3577 	6.00181e-21
0.3584 	3.63952e-21
0.3591 	2.39572e-21
0.3598 	2.27043e-21
0.3605 	1.91478e-21
0.3612 	1.46699e-21
0.3619 	1.12624e-21
0.3626 	8.28215e-22
0.3633 	6.49752e-22
0.364 	5.12532e-22
0.3647 	4.4955e-22
0.3654 	3.90085e-22
0.3661 	3.33258e-22
0.3668 	2.89728e-22
0.3675 	2.49861e-22
0.3682 	2.10402e-22
0.3689 	1.74622e-22
0.3696 	1.52333e-22
0.3703 	1.30899e-22
0.371 	1.10604e-22
0.3717 	9.31953e-23
0.3724 	7.739e-23
0.3731 	6.57639e-23
0.3738 	5.47415e-23
0.3745 	4.79828e-23
0.3752 	4.08995e-23
0.3759 	3.3005e-23
0.3766 	2.59384e-23
0.3773 	1.96997e-23
0.378 	1.59201e-23
0.3787 	1.27737e-23
0.3794 	1.11991e-23
0.3801 	9.63844e-24
0.3808 	7.43594e-24
0.3815 	5.40492e-24
0.3822 	3.68258e-24
0.3829 	2.64481e-24
0.3836 	1.9719e-24
0.3843 	1.68349e-24
0.385 	1.49995e-24
0.3857 	1.12174e-24
0.3864 	7.60863e-25
0.3871 	4.63556e-25
0.3878 	2.70647e-25
0.3885 	1.78275e-25
0.3892 	1.38842e-25
0.3899 	1.2882e-25
0.3906 	9.76624e-26
0.3913 	6.34512e-26
0.392 	3.53334e-26
0.3927 	1.50289e-26
0.3934 	8.22824e-27
0.3941 	4.77097e-27
0.3948 	4.65717e-27
0.3955 	3.69654e-27
0.3962 	2.39717e-27
0.3969 	1.2907e-27
0.3976 	3.96201e-28
0.3983 	1.86031e-28
0.399 	5.13387e-29
0.3997 	5.2508e-29
0.4004 	4.44157e-29
0.4011 	2.93774e-29
0.4018 	1.6006e-29
0.4025 	3.95872e-30
0.4032 	1.80912e-30
0.4039 	1.20267e-31
0.4046 	1.20847e-31
0.4053 	1.0641e-31
0.406 	7.19511e-32
0.4067 	4.13003e-32
0.4074 	1.27654e-32
0.4081 	5.49286e-33
0.4088 	4.77579e-35
0.4095 	4.46312e-35
0.4102 	3.89738e-35
0.4109 	2.69896e-35
0.4116 	1.67155e-35
0.4123 	8.15148e-36
0.413 	3.68357e-36
0.4137 	2.72077e-37
0.4144 	3.55662e-38
0.4151 	4.07041e-38
0.4158 	3.02761e-38
0.4165 	2.33495e-38
0.4172 	2.27254e-38
0.4179 	2.09889e-38
0.4186 	1.86588e-38
0.4193 	2.40414e-38
0.42 	3.15275e-38
0.4207 	2.39894e-38
0.4214 	1.80541e-38
0.4221 	1.79964e-38
0.4228 	1.66926e-38
0.4235 	1.41879e-38
0.4242 	1.64927e-38
0.4249 	2.14696e-38
0.4256 	1.7603e-38
0.4263 	1.26367e-38
0.427 	1.25348e-38
0.4277 	1.13436e-38
0.4284 	8.26809e-39
0.4291 	7.81296e-39
0.4298 	9.97825e-39
0.4305 	8.77505e-39
0.4312 	6.22446e-39
0.4319 	5.9637e-39
0.4326 	5.50416e-39
0.4333 	3.7415e-39
0.434 	2.86024e-39
0.4347 	3.56555e-39
0.4354 	3.33545e-39
0.4361 	2.4038e-39
0.4368 	2.16842e-39
0.4375 	2.06834e-39
0.4382 	1.34513e-39
0.4389 	8.12052e-40
0.4396 	9.76099e-40
0.4403 	9.57886e-40
0.441 	6.9666e-40
0.4417 	5.91985e-40
0.4424 	5.74281e-40
0.4431 	3.66889e-40
0.4438 	1.64307e-40
0.4445 	1.88263e-40
0.4452 	1.90776e-40
0.4459 	1.39678e-40
0.4466 	1.11828e-40
0.4473 	1.07224e-40
0.448 	7.06508e-41
0.4487 	2.58223e-41
0.4494 	2.42776e-41
0.4501 	2.48677e-41
0.4508 	1.8289e-41
0.4515 	1.37849e-41
0.4522 	1.30148e-41
0.4529 	8.95333e-42
0.4536 	3.13418e-42
0.4543 	1.89562e-42
0.455 	1.90634e-42
0.4557 	1.40684e-42
0.4564 	9.98195e-43
0.4571 	9.22673e-43
0.4578 	6.65666e-43
0.4585 	2.33587e-43
0.4592 	7.55334e-44
0.4599 	6.97193e-44
0.4606 	5.30275e-44
0.4613 	3.55818e-44
0.462 	3.19003e-44
0.4627 	2.40226e-44
0.4634 	8.87941e-45
0.4641 	1.21297e-45
0.4648 	1.02339e-45
0.4655 	7.80281e-46
0.4662 	5.15757e-46
0.4669 	4.33229e-46
0.4676 	3.35294e-46
0.4683 	1.35034e-46
0.469 	5.86656e-48
0.4697 	4.66752e-48
0.4704 	3.50228e-48
0.4711 	2.3624e-48
0.4718 	1.84194e-48
0.4725 	1.45353e-48
0.4732 	6.42998e-49
0.4739 	5.82213e-51
0.4746 	4.31728e-51
0.4753 	3.05081e-51
0.476 	2.10219e-51
0.4767 	1.51299e-51
0.4774 	1.12347e-51
0.4781 	5.47224e-52
0.4788 	5.57244e-55
0.4795 	4.14663e-55
0.4802 	2.88341e-55
0.4809 	2.02667e-55
0.4816 	1.41069e-55
0.4823 	1.03548e-55
0.483 	5.50496e-56
0.4837 	3.71372e-57
0.4844 	4.55026e-59
0.4851 	4.26855e-59
0.4858 	3.05179e-59
0.4865 	2.17873e-59
0.4872 	1.92431e-59
0.4879 	1.25567e-59
0.4886 	3.65656e-60
0.4893 	2.48435e-60
0.49 	3.4198e-60
0.4907 	2.4833e-60
0.4914 	1.74744e-60
0.4921 	1.74723e-60
0.4928 	1.30807e-60
0.4935 	4.45194e-61
0.4942 	1.84227e-61
0.4949 	2.57658e-61
0.4956 	2.05207e-61
0.4963 	1.3702e-61
0.497 	1.3702e-61
0.4977 	1.11029e-61
0.4984 	4.00076e-62
0.4991 	5.70159e-63
0.4998 	8.11143e-63
0.5005 	7.07863e-63
0.5012 	4.66878e-63
0.5019 	4.49666e-63
0.5026 	3.96379e-63
0.5033 	1.57521e-63
0.504 	4.72773e-65
0.5047 	6.85263e-65
0.5054 	6.54913e-65
0.5061 	4.42432e-65
0.5068 	3.96903e-65
0.5075 	3.79921e-65
0.5082 	1.68199e-65
0.5089 	2.00809e-67
0.5096 	2.76754e-67
0.5103 	2.87701e-67
0.511 	2.11985e-67
0.5117 	1.84827e-67
0.5124 	1.84646e-67
0.5131 	1.55327e-67
0.5138 	1.2945e-67
0.5145 	1.73646e-67
0.5152 	1.92124e-67
0.5159 	1.46309e-67
0.5166 	1.23046e-67
0.5173 	1.22336e-67
0.518 	1.12846e-67
0.5187 	1.01085e-67
0.5194 	1.30823e-67
0.5201 	1.5379e-67
0.5208 	1.16986e-67
0.5215 	9.29777e-68
0.5222 	9.20034e-68
0.5229 	8.08325e-68
0.5236 	6.42096e-68
0.5243 	7.52281e-68
0.525 	9.37853e-68
0.5257 	7.15635e-68
0.5264 	5.39323e-68
0.5271 	5.31326e-68
0.5278 	4.64657e-68
0.5285 	3.41332e-68
0.5292 	3.52018e-68
0.5299 	4.37158e-68
0.5306 	3.54748e-68
0.5313 	2.51955e-68
0.532 	2.47182e-68
0.5327 	2.17701e-68
0.5334 	1.45395e-68
0.5341 	1.24053e-68
0.5348 	1.53677e-68
0.5355 	1.32608e-68
0.5362 	9.12622e-69
0.5369 	8.64797e-69
0.5376 	7.82109e-69
0.5383 	4.79951e-69
0.539 	3.12758e-69
0.5397 	3.88507e-69
0.5404 	3.57422e-69
0.5411 	2.46212e-69
0.5418 	2.18145e-69
0.5425 	2.06187e-69
0.5432 	1.1887e-69
0.5439 	5.32464e-70
0.5446 	6.71691e-70
0.5453 	6.63767e-70
0.546 	4.59642e-70
0.5467 	3.8089e-70
0.5474 	3.71789e-70
0.5481 	2.13584e-70
0.5488 	5.87416e-71
0.5495 	7.73658e-71
0.5502 	8.35463e-71
0.5509 	5.86174e-71
0.5516 	4.5736e-71
0.5523 	4.4902e-71
0.553 	2.80734e-71
0.5537 	7.10527e-72
0.5544 	7.62544e-72
0.5551 	9.14021e-72
0.5558 	6.70437e-72
0.5565 	5.1246e-72
0.5572 	5.08576e-72
0.5579 	3.71015e-72
0.5586 	1.6196e-72
0.5593 	1.11739e-72
0.56 	1.04838e-72
0.5607 	1.08761e-72
0.5614 	1.1159e-72
0.5621 	1.10405e-72
0.5628 	8.6401e-73
0.5635 	4.03559e-73
0.5642 	-4.12995e-73
0.5649 	-1.42739e-72
0.5656 	-7.37608e-73
0.5663 	1.65439e-73
0.567 	1.48673e-73
0.5677 	6.17808e-74
0.5684 	-1.46684e-73
0.5691 	-1.19682e-72
0.5698 	-3.08864e-72
0.5705 	-2.32004e-72
0.5712 	-4.87263e-73
0.5719 	-3.77805e-73
0.5726 	-4.19471e-73
0.5733 	-5.25856e-73
0.574 	-1.62295e-72
0.5747 	-4.50335e-72
0.5754 	-4.13694e-72
0.5761 	-1.33542e-72
0.5768 	-7.58536e-73
0.5775 	-7.939e-73
0.5782 	-8.92978e-73
0.5789 	-1.84706e-72
0.5796 	-5.93625e-72
0.5803 	-6.56289e-72
0.581 	-2.57282e-72
0.5817 	-1.17108e-72
0.5824 	-1.20729e-72
0.5831 	-1.31443e-72
0.5838 	-1.81249e-72
0.5845 	-7.33089e-72
0.5852 	-9.72926e-72
0.5859 	-4.32751e-72
0.5866 	-1.64725e-72
0.5873 	-1.68845e-72
0.588 	-1.79376e-72
0.5887 	-1.91566e-72
0.5894 	-8.5219e-72
0.5901 	-1.36153e-71
0.5908 	-6.63846e-72
0.5915 	-2.16899e-72
0.5922 	-2.21265e-72
0.5929 	-2.30921e-72
0.5936 	-2.43406e-72
0.5943 	-9.32922e-72
0.595 	-1.80709e-71
0.5957 	-9.45997e-72
0.5964 	-2.70343e-72
0.5971 	-2.74611e-72
0.5978 	-2.82776e-72
0.5985 	-2.94707e-72
0.5992 	-9.6042e-72
0.5999 	-1.98935e-71
0.6006 	-1.26484e-71
0.6013 	-3.20994e-72
0.602 	-3.24765e-72
0.6027 	-3.30952e-72
0.6034 	-3.41326e-72
0.6041 	-9.26377e-72
0.6048 	-2.08612e-71
0.6055 	-1.59629e-71
0.6062 	-4.4664e-72
0.6069 	-3.67209e-72
0.6076 	-3.712e-72
0.6083 	-3.79034e-72
0.609 	-8.31545e-72
0.6097 	-2.08449e-71
0.6104 	-1.90946e-71
0.6111 	-6.63442e-72
0.6118 	-3.97781e-72
0.6125 	-3.99708e-72
0.6132 	-4.04226e-72
0.6139 	-6.86091e-72
0.6146 	-1.98492e-71
0.6153 	-2.17177e-71
0.616 	-8.7599e-72
0.6167 	-4.13439e-72
0.6174 	-4.13785e-72
0.6181 	-4.14547e-72
0.6188 	-5.07655e-72
0.6195 	-1.80098e-71
0.6202 	-2.35495e-71
0.6209 	-1.06053e-71
0.6216 	-4.12827e-72
0.6223 	-4.11815e-72
0.623 	-4.09292e-72
0.6237 	-4.06379e-72
0.6244 	-1.55624e-71
0.6251 	-2.4402e-71
0.6258 	-1.19668e-71
0.6265 	-3.96487e-72
0.6272 	-3.9427e-72
0.6279 	-3.89478e-72
0.6286 	-3.8331e-72
0.6293 	-1.27932e-71
0.63 	-2.42139e-71
0.6307 	-1.27113e-71
0.6314 	-3.66683e-72
0.6321 	-3.63538e-72
0.6328 	-3.57589e-72
0.6335 	-3.48933e-72
0.6342 	-9.98517e-72
0.6349 	-2.0138e-71
0.6356 	-1.27964e-71
0.6363 	-3.26923e-72
0.637 	-3.23192e-72
0.6377 	-3.17093e-72
0.6384 	-3.06889e-72
0.6391 	-7.37384e-72
0.6398 	-1.60858e-71
0.6405 	-1.2269e-71
0.6412 	-3.44074e-72
0.6419 	-2.77335e-72
0.6426 	-2.71846e-72
0.6433 	-2.61048e-72
0.644 	-5.12119e-72
0.6447 	-1.23456e-71
0.6454 	-1.12461e-71
0.6461 	-3.90352e-72
0.6468 	-2.29957e-72
0.6475 	-2.25531e-72
0.6482 	-2.14975e-72
0.6489 	-3.3088e-72
0.6496 	-9.10488e-72
0.6503 	-9.88501e-72
0.651 	-3.97721e-72
0.6517 	-1.84428e-72
0.6524 	-1.80847e-72
0.6531 	-1.71547e-72
0.6538 	-1.94725e-72
0.6545 	-6.45094e-72
0.6552 	-8.35263e-72
0.6559 	-3.7493e-72
0.6566 	-1.43205e-72
0.6573 	-1.40084e-72
0.658 	-1.32761e-72
0.6587 	-1.24352e-72
0.6594 	-4.38775e-72
0.6601 	-6.79895e-72
0.6608 	-3.32196e-72
0.6615 	-1.0775e-72
0.6622 	-1.05157e-72
0.6629 	-9.97183e-73
0.6636 	-9.27578e-73
0.6643 	-2.86096e-72
0.665 	-5.34063e-72
0.6657 	-2.79263e-72
0.6664 	-7.86213e-73
0.6671 	-7.65593e-73
0.6678 	-7.274e-73
0.6685 	-6.72241e-73
0.6692 	-1.7839e-72
0.6699 	-3.54379e-72
0.6706 	-2.24125e-72
0.6713 	-5.56672e-73
0.672 	-5.40913e-73
0.6727 	-5.15549e-73
0.6734 	-4.73545e-73
0.6741 	-1.05927e-72
0.6748 	-2.27273e-72
0.6755 	-1.72436e-72
0.6762 	-4.71253e-73
0.6769 	-3.70961e-73
0.6776 	-3.55042e-73
0.6783 	-3.24153e-73
0.679 	-5.94451e-73
0.6797 	-1.4069e-72
0.6804 	-1.27445e-72
0.6811 	-4.33347e-73
0.6818 	-2.46556e-73
0.6825 	-2.37098e-73
0.6832 	-2.14891e-73
0.6839 	-3.0995e-73
0.6846 	-8.34997e-73
0.6853 	-9.01257e-73
0.686 	-3.55804e-73
0.6867 	-1.57132e-73
0.6874 	-1.51112e-73
0.6881 	-1.35646e-73
0.6888 	-1.43363e-73
0.6895 	-4.60673e-73
0.6902 	-5.92362e-73
0.6909 	-2.59996e-73
0.6916 	-9.15224e-74
0.6923 	-8.69378e-74
0.693 	-7.64135e-74
0.6937 	-6.43537e-74
0.6944 	-2.10583e-73
0.6951 	-3.22032e-73
0.6958 	-1.51732e-73
0.6965 	-4.11291e-74
0.6972 	-3.79801e-74
0.6979 	-3.18558e-74
0.6986 	-2.41416e-74
0.6993 	-1.93195e-74
0.7 	-1.52861e-74
