0 	1
0.0007 	1
0.0014 	1
0.0021 	1
0.0028 	1
0.0035 	1
0.0042 	1
0.0049 	1
0.0056 	1
0.0063 	1
0.007 	1
0.0077 	1
0.0084 	1
0.0091 	1
0.0098 	1
0.0105 	1
0.0112 	1
0.0119 	1
0.0126 	1
0.0133 	1
0.014 	1
0.0147 	1
0.0154 	1
0.0161 	1
0.0168 	1
0.0175 	1
0.0182 	1
0.0189 	1
0.0196 	1
0.0203 	1
0.021 	1
0.0217 	1
0.0224 	1
0.0231 	1
0.0238 	1
0.0245 	1
0.0252 	1
0.0259 	1
0.0266 	1
0.0273 	1
0.028 	1
0.0287 	1
0.0294 	1
0.0301 	1
0.0308 	1
0.0315 	1
0.0322 	1
0.0329 	1
0.0336 	1
0.0343 	1
0.035 	1
0.0357 	1
0.0364 	1
0.0371 	1
0.0378 	1
0.0385 	1
0.0392 	1
0.0399 	1
0.0406 	1
0.0413 	1
0.042 	1
0.0427 	1
0.0434 	1
0.0441 	1
0.0448 	1
0.0455 	1
0.0462 	1
0.0469 	1
0.0476 	1
0.0483 	1
0.049 	1
0.0497 	1
0.0504 	1
0.0511 	1
0.0518 	1
0.0525 	1
0.0532 	1
0.0539 	1
0.0546 	1
0.0553 	1
0.056 	1
0.0567 	1
0.0574 	1
0.0581 	1
0.0588 	1
0.0595 	1
0.0602 	1
0.0609 	1
0.0616 	1
0.0623 	1
0.063 	1
0.0637 	1
0.0644 	1
0.0651 	1
0.0658 	1
0.0665 	1
0.0672 	1
0.0679 	1
0.0686 	1
0.0693 	1
0.07 	1
0.0707 	1
0.0714 	1
0.0721 	1
0.0728 	1
0.0735 	1
0.0742 	1
0.0749 	1
0.0756 	1
0.0763 	1
0.077 	1
0.0777 	1
0.0784 	1
0.0791 	1
0.0798 	1
0.0805 	1
0.0812 	1
0.0819 	1
0.0826 	1
0.0833 	1
0.084 	1
0.0847 	1
0.0854 	1
0.0861 	1
0.0868 	1
0.0875 	1
0.0882 	1
0.0889 	1
0.0896 	1
0.0903 	1
0.091 	1
0.0917 	1
0.0924 	1
0.0931 	1
0.0938 	1
0.0945 	1
0.0952 	1
0.0959 	1
0.0966 	1
0.0973 	1
0.098 	1
0.0987 	1
0.0994 	1
0.1001 	1
0.1008 	1
0.1015 	1
0.1022 	1
0.1029 	1
0.1036 	1
0.1043 	1
0.105 	1
0.1057 	1
0.1064 	1
0.1071 	1
0.1078 	1
0.1085 	1
0.1092 	1
0.1099 	1
0.1106 	1
0.1113 	1
0.112 	1
0.1127 	1
0.1134 	1
0.1141 	1
0.1148 	1
0.1155 	1
0.1162 	1
0.1169 	1
0.1176 	1
0.1183 	1
0.119 	1
0.1197 	1
0.1204 	1
0.1211 	1
0.1218 	1
0.1225 	1
0.1232 	1
0.1239 	1
0.1246 	1
0.1253 	1
0.126 	1
0.1267 	1
0.1274 	1
0.1281 	1
0.1288 	1
0.1295 	1
0.1302 	1
0.1309 	1
0.1316 	1
0.1323 	1
0.133 	1
0.1337 	1
0.1344 	1
0.1351 	1
0.1358 	1
0.1365 	1
0.1372 	1
0.1379 	1
0.1386 	1
0.1393 	1
0.14 	1
0.1407 	1
0.1414 	1
0.1421 	1
0.1428 	1
0.1435 	1
0.1442 	1
0.1449 	1
0.1456 	1
0.1463 	1
0.147 	1
0.1477 	1
0.1484 	1
0.1491 	1
0.1498 	1
0.1505 	1
0.1512 	1
0.1519 	1
0.1526 	1
0.1533 	1
0.154 	1
0.1547 	1
0.1554 	1
0.1561 	1
0.1568 	1
0.1575 	1
0.1582 	1
0.1589 	1
0.1596 	1
0.1603 	1
0.161 	1
0.1617 	1
0.1624 	1
0.1631 	1
0.1638 	1
0.1645 	1
0.1652 	1
0.1659 	1
0.1666 	1
0.1673 	1
0.168 	1
0.1687 	1
0.1694 	1
0.1701 	1
0.1708 	1
0.1715 	1
0.1722 	1
0.1729 	1
0.1736 	1
0.1743 	1
0.175 	1
0.1757 	1
0.1764 	1
0.1771 	1
0.1778 	1
0.1785 	1
0.1792 	1
0.1799 	1
0.1806 	1
0.1813 	1
0.182 	1
0.1827 	1
0.1834 	1
0.1841 	1
0.1848 	1
0.1855 	1
0.1862 	1
0.1869 	1
0.1876 	1
0.1883 	1
0.189 	1
0.1897 	1
0.1904 	1
0.1911 	1
0.1918 	1
0.1925 	1
0.1932 	1
0.1939 	1
0.1946 	1
0.1953 	1
0.196 	1
0.1967 	1
0.1974 	1
0.1981 	1
0.1988 	1
0.1995 	1
0.2002 	1
0.2009 	1
0.2016 	1
0.2023 	1
0.203 	1
0.2037 	1
0.2044 	1
0.2051 	1
0.2058 	1
0.2065 	1
0.2072 	1
0.2079 	1
0.2086 	1
0.2093 	1
0.21 	1
0.2107 	1
0.2114 	1
0.2121 	1
0.2128 	1
0.2135 	1
0.2142 	1
0.2149 	1
0.2156 	1
0.2163 	1
0.217 	1
0.2177 	1
0.2184 	1
0.2191 	1
0.2198 	1
0.2205 	1
0.2212 	1
0.2219 	1
0.2226 	1
0.2233 	1
0.224 	1
0.2247 	1
0.2254 	1
0.2261 	1
0.2268 	1
0.2275 	1
0.2282 	1
0.2289 	1
0.2296 	1
0.2303 	1
0.231 	1
0.2317 	1
0.2324 	1
0.2331 	1
0.2338 	1
0.2345 	1
0.2352 	1
0.2359 	1
0.2366 	1
0.2373 	1
0.238 	1
0.2387 	1
0.2394 	1
0.2401 	1
0.2408 	1
0.2415 	1
0.2422 	1
0.2429 	1
0.2436 	1
0.2443 	1
0.245 	1
0.2457 	1
0.2464 	1
0.2471 	1
0.2478 	1
0.2485 	1
0.2492 	1
0.2499 	1
0.2506 	1
0.2513 	1
0.252 	1
0.2527 	1
0.2534 	1
0.2541 	1
0.2548 	1
0.2555 	1
0.2562 	1
0.2569 	1
0.2576 	1
0.2583 	1
0.259 	1
0.2597 	1
0.2604 	1
0.2611 	1
0.2618 	1
0.2625 	1
0.2632 	1
0.2639 	1
0.2646 	1
0.2653 	1
0.266 	1
0.2667 	1
0.2674 	1
0.2681 	1
0.2688 	1
0.2695 	1
0.2702 	1
0.2709 	1
0.2716 	0.999999
0.2723 	0.999998
0.273 	0.999998
0.2737 	0.999997
0.2744 	0.999996
0.2751 	0.999994
0.2758 	0.999992
0.2765 	0.999987
0.2772 	0.999974
0.2779 	0.999961
0.2786 	0.999947
0.2793 	0.999926
0.28 	0.999902
0.2807 	0.999872
0.2814 	0.999815
0.2821 	0.99965
0.2828 	0.9994
0.2835 	0.999151
0.2842 	0.99882
0.2849 	0.998443
0.2856 	0.998042
0.2863 	0.997481
0.287 	0.994905
0.2877 	0.990324
0.2884 	0.985628
0.2891 	0.979847
0.2898 	0.97298
0.2905 	0.966324
0.2912 	0.959751
0.2919 	0.930093
0.2926 	0.891549
0.2933 	0.851243
0.294 	0.802058
0.2947 	0.736895
0.2954 	0.668677
0.2961 	0.598168
0.2968 	0.534501
0.2975 	0.472184
0.2982 	0.409595
0.2989 	0.348874
0.2996 	0.294996
0.3003 	0.237745
0.301 	0.175994
0.3017 	0.129368
0.3024 	0.0956715
0.3031 	0.06628
0.3038 	0.0385687
0.3045 	0.0326987
0.3052 	0.0261496
0.3059 	0.0179025
0.3066 	0.0109747
0.3073 	0.00643739
0.308 	0.00373779
0.3087 	0.00103818
0.3094 	0.000787448
0.3101 	0.000701289
0.3108 	0.000472452
0.3115 	0.00026111
0.3122 	0.00011065
0.3129 	6.20304e-05
0.3136 	1.34113e-05
0.3143 	3.24717e-06
0.315 	3.57026e-06
0.3157 	2.40182e-06
0.3164 	1.25948e-06
0.3171 	2.86532e-07
0.3178 	1.65632e-07
0.3185 	4.47311e-08
0.3192 	1.95127e-09
0.3199 	2.57057e-09
0.3206 	1.89438e-09
0.3213 	1.00481e-09
0.322 	1.48276e-10
0.3227 	5.97706e-11
0.3234 	2.44316e-11
0.3241 	6.77919e-12
0.3248 	6.81283e-12
0.3255 	6.8075e-12
0.3262 	6.78658e-12
0.3269 	6.7678e-12
0.3276 	6.76933e-12
0.3283 	6.77619e-12
0.329 	6.78386e-12
0.3297 	6.793e-12
0.3304 	6.80128e-12
0.3311 	6.80892e-12
0.3318 	6.81565e-12
0.3325 	6.8175e-12
0.3332 	6.81682e-12
0.3339 	6.81593e-12
0.3346 	6.81422e-12
0.3353 	6.8134e-12
0.336 	6.81375e-12
0.3367 	6.81429e-12
0.3374 	6.8087e-12
0.3381 	6.79695e-12
0.3388 	6.78523e-12
0.3395 	6.77396e-12
0.3402 	6.76413e-12
0.3409 	6.75791e-12
0.3416 	6.74956e-12
0.3423 	6.73125e-12
0.343 	6.69893e-12
0.3437 	6.66662e-12
0.3444 	6.63055e-12
0.3451 	6.59625e-12
0.3458 	6.57427e-12
0.3465 	6.54791e-12
0.3472 	6.50606e-12
0.3479 	6.43627e-12
0.3486 	6.36647e-12
0.3493 	6.28728e-12
0.35 	6.20552e-12
0.3507 	6.14634e-12
0.3514 	6.08244e-12
0.3521 	5.99813e-12
0.3528 	5.87204e-12
0.3535 	5.74595e-12
0.3542 	5.60594e-12
0.3549 	5.4582e-12
0.3556 	5.32891e-12
0.3563 	5.20083e-12
0.357 	5.0487e-12
0.3577 	4.86275e-12
0.3584 	4.67407e-12
0.3591 	4.47253e-12
0.3598 	4.25816e-12
0.3605 	4.04634e-12
0.3612 	3.83553e-12
0.3619 	3.61483e-12
0.3626 	3.39375e-12
0.3633 	3.17277e-12
0.364 	2.94794e-12
0.3647 	2.71619e-12
0.3654 	2.46857e-12
0.3661 	2.20905e-12
0.3668 	1.97045e-12
0.3675 	1.76952e-12
0.3682 	1.58683e-12
0.3689 	1.40974e-12
0.3696 	1.25319e-12
0.3703 	1.0769e-12
0.371 	8.74288e-13
0.3717 	7.0098e-13
0.3724 	5.75612e-13
0.3731 	4.82884e-13
0.3738 	3.93374e-13
0.3745 	3.45681e-13
0.3752 	2.89036e-13
0.3759 	2.1001e-13
0.3766 	1.41419e-13
0.3773 	9.51527e-14
0.378 	7.115e-14
0.3787 	4.71472e-14
0.3794 	4.22408e-14
0.3801 	3.75958e-14
0.3808 	2.57066e-14
0.3815 	1.47217e-14
0.3822 	6.78818e-15
0.3829 	4.41184e-15
0.3836 	2.03551e-15
0.3843 	1.59482e-15
0.385 	1.68203e-15
0.3857 	1.15036e-15
0.3864 	6.3353e-16
0.3871 	1.94933e-16
0.3878 	1.3112e-16
0.3885 	6.73073e-17
0.3892 	4.50349e-17
0.3899 	4.58399e-17
0.3906 	3.96817e-17
0.3913 	3.2444e-17
0.392 	2.62588e-17
0.3927 	2.38765e-17
0.3934 	2.1845e-17
0.3941 	2.03467e-17
0.3948 	1.93817e-17
0.3955 	1.82368e-17
0.3962 	1.70199e-17
0.3969 	1.60374e-17
0.3976 	1.47778e-17
0.3983 	1.34307e-17
0.399 	1.21733e-17
0.3997 	1.10772e-17
0.4004 	1.00288e-17
0.4011 	9.0162e-18
0.4018 	8.207e-18
0.4025 	7.25981e-18
0.4032 	6.19765e-18
0.4039 	5.19097e-18
0.4046 	4.38775e-18
0.4053 	3.63626e-18
0.406 	2.95374e-18
0.4067 	2.44429e-18
0.4074 	2.00197e-18
0.4081 	1.52859e-18
0.4088 	1.07446e-18
0.4095 	8.7055e-19
0.4102 	6.73778e-19
0.4109 	4.94851e-19
0.4116 	3.54146e-19
0.4123 	2.55873e-19
0.413 	1.65812e-19
0.4137 	7.57518e-20
0.4144 	5.67608e-20
0.4151 	4.33326e-20
0.4158 	3.04824e-20
0.4165 	1.93634e-20
0.4172 	1.19449e-20
0.4179 	6.93968e-21
0.4186 	1.93449e-21
0.4193 	7.47017e-22
0.42 	6.00712e-22
0.4207 	4.20076e-22
0.4214 	2.50721e-22
0.4221 	1.26541e-22
0.4228 	7.34565e-23
0.4235 	2.03718e-23
0.4242 	1.31583e-24
0.4249 	1.16423e-24
0.4256 	8.38759e-25
0.4263 	4.89503e-25
0.427 	2.07762e-25
0.4277 	1.14474e-25
0.4284 	4.056e-26
0.4291 	3.46789e-27
0.4298 	3.19729e-27
0.4305 	2.63326e-27
0.4312 	1.95187e-27
0.4319 	1.3969e-27
0.4326 	1.12578e-27
0.4333 	9.39925e-28
0.434 	8.05416e-28
0.4347 	7.63325e-28
0.4354 	6.66597e-28
0.4361 	5.28891e-28
0.4368 	4.13024e-28
0.4375 	3.48354e-28
0.4382 	3.11563e-28
0.4389 	2.81196e-28
0.4396 	2.74388e-28
0.4403 	2.52544e-28
0.441 	2.10654e-28
0.4417 	1.74992e-28
0.4424 	1.53454e-28
0.4431 	1.43715e-28
0.4438 	1.34721e-28
0.4445 	1.35402e-28
0.4452 	1.31513e-28
0.4459 	1.16201e-28
0.4466 	1.02545e-28
0.4473 	9.33346e-29
0.448 	8.97713e-29
0.4487 	8.6208e-29
0.4494 	8.59623e-29
0.4501 	8.46816e-29
0.4508 	7.5659e-29
0.4515 	6.68755e-29
0.4522 	5.95836e-29
0.4529 	5.69119e-29
0.4536 	5.42402e-29
0.4543 	5.22253e-29
0.455 	5.03895e-29
0.4557 	4.37464e-29
0.4564 	3.71018e-29
0.4571 	3.06385e-29
0.4578 	2.83495e-29
0.4585 	2.60605e-29
0.4592 	2.38486e-29
0.4599 	2.16794e-29
0.4606 	1.79363e-29
0.4613 	1.39586e-29
0.462 	1.034e-29
0.4627 	8.76442e-30
0.4634 	7.41846e-30
0.4641 	6.29873e-30
0.4648 	5.40522e-30
0.4655 	4.23713e-30
0.4662 	2.95922e-30
0.4669 	1.94446e-30
0.4676 	1.38957e-30
0.4683 	9.77307e-31
0.469 	6.72034e-31
0.4697 	5.59347e-31
0.4704 	4.28852e-31
0.4711 	2.85001e-31
0.4718 	1.76365e-31
0.4725 	1.07729e-31
0.4732 	5.843e-32
0.4739 	1.90045e-32
0.4746 	1.57801e-32
0.4753 	1.22283e-32
0.476 	8.23983e-33
0.4767 	5.28083e-33
0.4774 	3.24683e-33
0.4781 	1.61526e-33
0.4788 	9.92018e-35
0.4795 	8.47765e-35
0.4802 	6.85859e-35
0.4809 	4.79825e-35
0.4816 	3.28838e-35
0.4823 	2.28382e-35
0.483 	1.1848e-35
0.4837 	8.57746e-37
0.4844 	6.85782e-38
0.4851 	6.22939e-38
0.4858 	4.5384e-38
0.4865 	3.28106e-38
0.4872 	2.67309e-38
0.4879 	1.46622e-38
0.4886 	2.59353e-39
0.4893 	8.03776e-42
0.49 	8.82006e-42
0.4907 	6.62005e-42
0.4914 	4.82852e-42
0.4921 	4.47705e-42
0.4928 	2.57794e-42
0.4935 	6.78843e-43
0.4942 	6.82366e-46
0.4949 	8.11712e-46
0.4956 	6.3962e-46
0.4963 	4.28337e-46
0.497 	3.60677e-46
0.4977 	2.41603e-46
0.4984 	1.16314e-46
0.4991 	7.07325e-47
0.4998 	1.04857e-46
0.5005 	8.90914e-47
0.5012 	5.3369e-47
0.5019 	2.81276e-47
0.5026 	2.1758e-47
0.5033 	2.14609e-47
0.504 	2.6145e-47
0.5047 	3.97949e-47
0.5054 	3.74426e-47
0.5061 	2.30885e-47
0.5068 	1.02099e-47
0.5075 	5.20498e-48
0.5082 	5.08394e-48
0.5089 	5.64908e-48
0.5096 	8.7302e-48
0.5103 	9.05879e-48
0.511 	5.71735e-48
0.5117 	2.35668e-48
0.5124 	5.22472e-49
0.5131 	4.85363e-49
0.5138 	4.69447e-49
0.5145 	7.29013e-49
0.5152 	8.30227e-49
0.5159 	5.35559e-49
0.5166 	2.32853e-49
0.5173 	1.92756e-50
0.518 	1.47166e-50
0.5187 	1.01576e-50
0.5194 	1.43838e-50
0.5201 	1.7723e-50
0.5208 	1.1685e-50
0.5215 	5.56329e-51
0.5222 	3.55342e-52
0.5229 	2.10684e-52
0.5236 	6.60252e-53
0.5243 	4.48165e-53
0.525 	5.72754e-53
0.5257 	3.86125e-53
0.5264 	1.99699e-53
0.5271 	1.93511e-54
0.5278 	1.12088e-54
0.5285 	3.06647e-55
0.5292 	1.73365e-56
0.5299 	1.9644e-56
0.5306 	1.44691e-56
0.5313 	8.08845e-57
0.532 	2.24662e-57
0.5327 	9.95647e-58
0.5334 	3.32594e-58
0.5341 	1.13532e-60
0.5348 	1.26774e-60
0.5355 	1.02259e-60
0.5362 	6.26397e-61
0.5369 	3.22244e-61
0.5376 	1.69323e-61
0.5383 	6.62899e-62
0.539 	5.69125e-65
0.5397 	6.32461e-65
0.5404 	5.46212e-65
0.5411 	3.47774e-65
0.5418 	1.924e-65
0.5425 	1.00973e-65
0.5432 	4.44438e-66
0.5439 	2.85785e-69
0.5446 	3.12635e-69
0.5453 	2.86082e-69
0.546 	1.88324e-69
0.5467 	1.09616e-69
0.5474 	5.86789e-70
0.5481 	2.82601e-70
0.5488 	1.42528e-73
0.5495 	1.52897e-73
0.5502 	1.46787e-73
0.5509 	9.94824e-74
0.5516 	5.99078e-74
0.5523 	3.30298e-74
0.553 	1.70875e-74
0.5537 	1.14521e-75
0.5544 	-1.31221e-76
0.5551 	-2.37422e-76
0.5558 	-9.08285e-77
0.5565 	2.87821e-78
0.5572 	1.49028e-78
0.5579 	5.95175e-79
0.5586 	-2.9993e-79
0.5593 	-3.26548e-76
0.56 	-7.41527e-76
0.5607 	-3.26922e-76
0.5614 	-1.17575e-78
0.5621 	-1.24567e-78
0.5628 	-1.48991e-78
0.5635 	-1.73415e-78
0.5642 	-4.00747e-76
0.5649 	-1.02129e-75
0.5656 	-5.78247e-76
0.5663 	-2.24481e-78
0.567 	-2.26028e-78
0.5677 	-2.40414e-78
0.5684 	-2.5652e-78
0.5691 	-3.87782e-76
0.5698 	-1.15805e-75
0.5705 	-8.28062e-76
0.5712 	-5.7968e-77
0.5719 	-2.95558e-78
0.5726 	-3.04506e-78
0.5733 	-3.16901e-78
0.574 	-3.16328e-76
0.5747 	-1.19294e-75
0.5754 	-1.0678e-75
0.5761 	-1.91336e-76
0.5768 	-3.53867e-78
0.5775 	-3.60517e-78
0.5782 	-3.70457e-78
0.5789 	-2.10457e-76
0.5796 	-1.17493e-75
0.5803 	-1.31277e-75
0.581 	-3.48447e-76
0.5817 	-4.08549e-78
0.5824 	-4.15364e-78
0.5831 	-4.23441e-78
0.5838 	-7.92402e-77
0.5845 	-1.12824e-75
0.5852 	-1.57786e-75
0.5859 	-5.29002e-76
0.5866 	-4.61622e-78
0.5873 	-4.69204e-78
0.588 	-4.75423e-78
0.5887 	-4.81643e-78
0.5894 	-1.04843e-75
0.5901 	-1.85122e-75
0.5908 	-7.2747e-76
0.5915 	-5.08163e-78
0.5922 	-5.13849e-78
0.5929 	-5.17171e-78
0.5936 	-5.20493e-78
0.5943 	-9.27164e-76
0.595 	-2.10056e-75
0.5957 	-9.27224e-76
0.5964 	-5.32395e-78
0.5971 	-5.33143e-78
0.5978 	-5.32797e-78
0.5985 	-5.32452e-78
0.5992 	-7.73086e-76
0.5999 	-1.96738e-75
0.6006 	-1.1143e-75
0.6013 	-5.2905e-78
0.602 	-5.21463e-78
0.6027 	-5.17539e-78
0.6034 	-5.14121e-78
0.6041 	-5.99782e-76
0.6048 	-1.78909e-75
0.6055 	-1.27933e-75
0.6062 	-8.99252e-77
0.6069 	-4.4544e-78
0.6076 	-4.24818e-78
0.6083 	-4.16755e-78
0.609 	-4.19284e-76
0.6097 	-1.58175e-75
0.6104 	-1.41549e-75
0.6111 	-2.52674e-76
0.6118 	-7.59723e-79
0.6125 	7.86502e-79
0.6132 	9.93448e-79
0.6139 	-2.40332e-76
0.6146 	-1.36727e-75
0.6153 	-1.52782e-75
0.616 	-3.9986e-76
0.6167 	1.68127e-77
0.6174 	2.87408e-77
0.6181 	2.88971e-77
0.6188 	-4.83445e-77
0.6195 	-1.13174e-75
0.6202 	-1.59605e-75
0.6209 	-5.12642e-76
0.6216 	6.65104e-77
0.6223 	1.18515e-76
0.623 	1.18515e-76
0.6237 	1.18514e-76
0.6244 	-8.20536e-76
0.6251 	-1.54287e-75
0.6258 	-5.31518e-76
0.6265 	1.34372e-76
0.6272 	1.71264e-76
0.6279 	1.71234e-76
0.6286 	1.71204e-76
0.6293 	-5.7497e-76
0.63 	-1.52464e-75
0.6307 	-5.74807e-76
0.6314 	1.56336e-76
0.6321 	8.70004e-77
0.6328 	8.66205e-77
0.6335 	8.62407e-77
0.6342 	-5.16447e-76
0.6349 	-1.45375e-75
0.6356 	-7.86179e-76
0.6363 	7.73028e-77
0.637 	1.04377e-77
0.6377 	1.39627e-78
0.6384 	5.15566e-79
0.6391 	-4.54726e-76
0.6398 	-1.36433e-75
0.6405 	-9.77173e-76
0.6412 	-7.13194e-77
0.6419 	-1.61817e-77
0.6426 	-1.94904e-77
0.6433 	-2.02553e-77
0.644 	-3.20395e-76
0.6447 	-1.15941e-75
0.6454 	-1.04053e-75
0.6461 	-2.03238e-76
0.6468 	-2.56918e-77
0.6475 	-2.68605e-77
0.6482 	-2.71853e-77
0.6489 	-1.88967e-76
0.6496 	-9.42755e-76
0.6503 	-1.05072e-75
0.651 	-2.97605e-76
0.6517 	-2.91013e-77
0.6524 	-2.95344e-77
0.6531 	-2.96042e-77
0.6538 	-7.67611e-77
0.6545 	-7.36044e-76
0.6552 	-1.01861e-75
0.6559 	-3.59365e-76
0.6566 	-2.97755e-77
0.6573 	-2.9786e-77
0.658 	-2.96843e-77
0.6587 	-2.95827e-77
0.6594 	-5.49877e-76
0.6601 	-9.50051e-76
0.6608 	-3.8932e-76
0.6615 	-2.87237e-77
0.6622 	-2.8391e-77
0.6629 	-2.81641e-77
0.6636 	-2.79372e-77
0.6643 	-3.91079e-76
0.665 	-8.53322e-76
0.6657 	-3.90346e-76
0.6664 	-2.64439e-77
0.6671 	-2.58178e-77
0.6678 	-2.55061e-77
0.6685 	-2.51945e-77
0.6692 	-2.62934e-76
0.6699 	-6.32924e-76
0.6706 	-3.6784e-76
0.6713 	-2.33478e-77
0.672 	-2.25489e-77
0.6727 	-2.21376e-77
0.6734 	-2.17815e-77
0.6741 	-1.65299e-76
0.6748 	-4.52689e-76
0.6755 	-3.28786e-76
0.6762 	-4.03659e-77
0.6769 	-1.89622e-77
0.6776 	-1.84645e-77
0.6783 	-1.81006e-77
0.679 	-9.52808e-77
0.6797 	-3.1204e-76
0.6804 	-2.80492e-76
0.6811 	-6.27145e-77
0.6818 	-1.53839e-77
0.6825 	-1.48352e-77
0.6832 	-1.44928e-77
0.6839 	-4.8274e-77
0.6846 	-2.07175e-76
0.6853 	-2.29475e-76
0.686 	-6.96424e-77
0.6867 	-1.2067e-77
0.6874 	-1.15087e-77
0.6881 	-1.12073e-77
0.6888 	-1.90254e-77
0.6895 	-1.32396e-76
0.6902 	-1.80755e-76
0.6909 	-6.65839e-77
0.6916 	-9.17282e-78
0.6923 	-8.64318e-78
0.693 	-8.39271e-78
0.6937 	-8.14223e-78
0.6944 	-8.13594e-77
0.6951 	-1.37601e-76
0.6958 	-5.80828e-77
0.6965 	-6.85863e-78
0.6972 	-6.5936e-78
0.6979 	-6.48172e-78
0.6986 	-6.36983e-78
0.6993 	-5.69918e-77
0.7 	-1.2145e-76
