0 	1
0.0007 	1
0.0014 	1
0.0021 	1
0.0028 	1
0.0035 	1
0.0042 	1
0.0049 	1
0.0056 	1
0.0063 	1
0.007 	1
0.0077 	1
0.0084 	1
0.0091 	1
0.0098 	1
0.0105 	1
0.0112 	1
0.0119 	1
0.0126 	1
0.0133 	1
0.014 	1
0.0147 	1
0.0154 	1
0.0161 	1
0.0168 	1
0.0175 	1
0.0182 	1
0.0189 	1
0.0196 	1
0.0203 	1
0.021 	1
0.0217 	1
0.0224 	1
0.0231 	1
0.0238 	1
0.0245 	1
0.0252 	1
0.0259 	1
0.0266 	1
0.0273 	1
0.028 	1
0.0287 	1
0.0294 	1
0.0301 	1
0.0308 	1
0.0315 	1
0.0322 	1
0.0329 	1
0.0336 	1
0.0343 	1
0.035 	1
0.0357 	1
0.0364 	1
0.0371 	1
0.0378 	1
0.0385 	1
0.0392 	1
0.0399 	1
0.0406 	1
0.0413 	1
0.042 	1
0.0427 	1
0.0434 	1
0.0441 	1
0.0448 	1
0.0455 	1
0.0462 	1
0.0469 	1
0.0476 	1
0.0483 	1
0.049 	1
0.0497 	1
0.0504 	1
0.0511 	1
0.0518 	1
0.0525 	1
0.0532 	1
0.0539 	1
0.0546 	1
0.0553 	1
0.056 	1
0.0567 	1
0.0574 	1
0.0581 	1
0.0588 	1
0.0595 	1
0.0602 	1
0.0609 	1
0.0616 	1
0.0623 	1
0.063 	1
0.0637 	1
0.0644 	1
0.0651 	1
0.0658 	1
0.0665 	1
0.0672 	1
0.0679 	1
0.0686 	1
0.0693 	1
0.07 	1
0.0707 	1
0.0714 	1
0.0721 	1
0.0728 	1
0.0735 	1
0.0742 	1
0.0749 	1
0.0756 	1
0.0763 	1
0.077 	1
0.0777 	1
0.0784 	1
0.0791 	1
0.0798 	1
0.0805 	1
0.0812 	1
0.0819 	1
0.0826 	1
0.0833 	1
0.084 	1
0.0847 	1
0.0854 	1
0.0861 	1
0.0868 	1
0.0875 	1
0.0882 	1
0.0889 	1
0.0896 	1
0.0903 	1
0.091 	1
0.0917 	1
0.0924 	1
0.0931 	1
0.0938 	1
0.0945 	1
0.0952 	1
0.0959 	1
0.0966 	1
0.0973 	1
0.098 	1
0.0987 	1
0.0994 	1
0.1001 	1
0.1008 	1
0.1015 	1
0.1022 	1
0.1029 	1
0.1036 	1
0.1043 	1
0.105 	1
0.1057 	1
0.1064 	1
0.1071 	1
0.1078 	1
0.1085 	1
0.1092 	1
0.1099 	1
0.1106 	1
0.1113 	1
0.112 	1
0.1127 	1
0.1134 	1
0.1141 	1
0.1148 	1
0.1155 	1
0.1162 	1
0.1169 	1
0.1176 	1
0.1183 	1
0.119 	1
0.1197 	1
0.1204 	1
0.1211 	1
0.1218 	1
0.1225 	1
0.1232 	1
0.1239 	1
0.1246 	1
0.1253 	1
0.126 	1
0.1267 	1
0.1274 	1
0.1281 	1
0.1288 	1
0.1295 	1
0.1302 	1
0.1309 	1
0.1316 	1
0.1323 	1
0.133 	1
0.1337 	1
0.1344 	1
0.1351 	1
0.1358 	1
0.1365 	1
0.1372 	1
0.1379 	1
0.1386 	1
0.1393 	1
0.14 	1
0.1407 	1
0.1414 	1
0.1421 	1
0.1428 	1
0.1435 	1
0.1442 	1
0.1449 	1
0.1456 	1
0.1463 	1
0.147 	1
0.1477 	1
0.1484 	1
0.1491 	1
0.1498 	1
0.1505 	1
0.1512 	1
0.1519 	1
0.1526 	1
0.1533 	1
0.154 	1
0.1547 	1
0.1554 	1
0.1561 	1
0.1568 	1
0.1575 	1
0.1582 	1
0.1589 	1
0.1596 	1
0.1603 	1
0.161 	1
0.1617 	1
0.1624 	1
0.1631 	1
0.1638 	1
0.1645 	1
0.1652 	1
0.1659 	1
0.1666 	1
0.1673 	1
0.168 	1
0.1687 	1
0.1694 	1
0.1701 	1
0.1708 	1
0.1715 	1
0.1722 	1
0.1729 	1
0.1736 	1
0.1743 	1
0.175 	1
0.1757 	1
0.1764 	1
0.1771 	1
0.1778 	1
0.1785 	1
0.1792 	1
0.1799 	1
0.1806 	1
0.1813 	1
0.182 	1
0.1827 	1
0.1834 	1
0.1841 	1
0.1848 	1
0.1855 	1
0.1862 	1
0.1869 	1
0.1876 	1
0.1883 	1
0.189 	1
0.1897 	1
0.1904 	1
0.1911 	1
0.1918 	1
0.1925 	1
0.1932 	1
0.1939 	1
0.1946 	1
0.1953 	1
0.196 	1
0.1967 	1
0.1974 	1
0.1981 	1
0.1988 	1
0.1995 	1
0.2002 	1
0.2009 	1
0.2016 	1
0.2023 	0.999999
0.203 	0.999999
0.2037 	0.999999
0.2044 	0.999998
0.2051 	0.999998
0.2058 	0.999998
0.2065 	0.999996
0.2072 	0.999992
0.2079 	0.999989
0.2086 	0.999988
0.2093 	0.999983
0.21 	0.999978
0.2107 	0.999976
0.2114 	0.999962
0.2121 	0.999906
0.2128 	0.999866
0.2135 	0.999851
0.2142 	0.9998
0.2149 	0.99973
0.2156 	0.999705
0.2163 	0.999601
0.217 	0.998377
0.2177 	0.997413
0.2184 	0.997167
0.2191 	0.996317
0.2198 	0.994865
0.2205 	0.994414
0.2212 	0.994363
0.2219 	0.975328
0.2226 	0.956567
0.2233 	0.950188
0.224 	0.936505
0.2247 	0.909676
0.2254 	0.89038
0.2261 	0.876735
0.2268 	0.828582
0.2275 	0.771018
0.2282 	0.728206
0.2289 	0.676274
0.2296 	0.589834
0.2303 	0.504436
0.231 	0.420431
0.2317 	0.359032
0.2324 	0.310192
0.2331 	0.251475
0.2338 	0.193364
0.2345 	0.167911
0.2352 	0.138934
0.2359 	0.101144
0.2366 	0.0766487
0.2373 	0.0654488
0.238 	0.0431387
0.2387 	0.0159753
0.2394 	0.0135059
0.2401 	0.0125016
0.2408 	0.00889089
0.2415 	0.00635374
0.2422 	0.00574891
0.2429 	0.00382898
0.2436 	0.000849119
0.2443 	0.000231239
0.245 	0.000257529
0.2457 	0.000185196
0.2464 	0.000127062
0.2471 	0.000120985
0.2478 	9.0212e-05
0.2485 	2.41147e-05
0.2492 	6.14198e-07
0.2499 	7.78431e-07
0.2506 	6.0862e-07
0.2513 	3.98685e-07
0.252 	3.90892e-07
0.2527 	3.26603e-07
0.2534 	1.08973e-07
0.2541 	1.94255e-10
0.2548 	2.66246e-10
0.2555 	2.3104e-10
0.2562 	1.52956e-10
0.2569 	1.46694e-10
0.2576 	1.36229e-10
0.2583 	5.89131e-11
0.259 	9.22192e-12
0.2597 	9.25464e-12
0.2604 	9.29312e-12
0.2611 	9.33591e-12
0.2618 	9.32808e-12
0.2625 	9.30644e-12
0.2632 	9.32264e-12
0.2639 	9.32585e-12
0.2646 	9.27929e-12
0.2653 	9.2483e-12
0.266 	9.23807e-12
0.2667 	9.12043e-12
0.2674 	8.9431e-12
0.2681 	8.84989e-12
0.2688 	8.76052e-12
0.2695 	8.51695e-12
0.2702 	8.28969e-12
0.2709 	8.10321e-12
0.2716 	7.83418e-12
0.2723 	7.48258e-12
0.273 	7.18896e-12
0.2737 	6.92014e-12
0.2744 	6.4982e-12
0.2751 	6.06642e-12
0.2758 	5.64633e-12
0.2765 	5.24404e-12
0.2772 	4.87381e-12
0.2779 	4.48597e-12
0.2786 	4.08419e-12
0.2793 	3.72082e-12
0.28 	3.36792e-12
0.2807 	2.96206e-12
0.2814 	2.59376e-12
0.2821 	2.36318e-12
0.2828 	2.09163e-12
0.2835 	1.76257e-12
0.2842 	1.54539e-12
0.2849 	1.39037e-12
0.2856 	1.19305e-12
0.2863 	9.96384e-13
0.287 	8.99946e-13
0.2877 	7.85957e-13
0.2884 	6.25438e-13
0.2891 	5.18516e-13
0.2898 	4.65191e-13
0.2905 	4.00005e-13
0.2912 	3.30075e-13
0.2919 	2.93842e-13
0.2926 	2.57421e-13
0.2933 	2.02674e-13
0.294 	1.60776e-13
0.2947 	1.4201e-13
0.2954 	1.2136e-13
0.2961 	9.92968e-14
0.2968 	8.5948e-14
0.2975 	7.49758e-14
0.2982 	5.83276e-14
0.2989 	4.39728e-14
0.2996 	3.82465e-14
0.3003 	3.21783e-14
0.301 	2.56542e-14
0.3017 	2.13869e-14
0.3024 	1.83733e-14
0.3031 	1.39011e-14
0.3038 	9.41475e-15
0.3045 	8.15842e-15
0.3052 	6.83415e-15
0.3059 	5.34e-15
0.3066 	4.278e-15
0.3073 	3.64814e-15
0.308 	2.71151e-15
0.3087 	1.64668e-15
0.3094 	1.37768e-15
0.3101 	1.16355e-15
0.3108 	9.11413e-16
0.3115 	7.11464e-16
0.3122 	6.05457e-16
0.3129 	4.58876e-16
0.3136 	2.80821e-16
0.3143 	2.16571e-16
0.315 	1.83359e-16
0.3157 	1.45993e-16
0.3164 	1.12941e-16
0.3171 	9.57056e-17
0.3178 	7.49088e-17
0.3185 	4.92152e-17
0.3192 	3.63301e-17
0.3199 	3.05609e-17
0.3206 	2.46297e-17
0.3213 	1.88852e-17
0.322 	1.59175e-17
0.3227 	1.26706e-17
0.3234 	8.7015e-18
0.3241 	6.21102e-18
0.3248 	5.19914e-18
0.3255 	4.18676e-18
0.3262 	3.17419e-18
0.3269 	2.63072e-18
0.3276 	2.10253e-18
0.3283 	1.44313e-18
0.329 	9.6217e-19
0.3297 	8.02392e-19
0.3304 	6.42232e-19
0.3311 	4.81786e-19
0.3318 	3.8656e-19
0.3325 	3.09121e-19
0.3332 	2.06637e-19
0.3339 	1.21618e-19
0.3346 	1.01133e-19
0.3353 	8.05048e-20
0.336 	5.96861e-20
0.3367 	4.60912e-20
0.3374 	3.65095e-20
0.3381 	2.39314e-20
0.3388 	1.16299e-20
0.3395 	9.65802e-21
0.3402 	7.67346e-21
0.3409 	5.65719e-21
0.3416 	4.2004e-21
0.3423 	3.30309e-21
0.343 	2.15595e-21
0.3437 	9.06994e-22
0.3444 	6.87275e-22
0.3451 	5.46455e-22
0.3458 	4.04012e-22
0.3465 	2.89869e-22
0.3472 	2.26669e-22
0.3479 	1.50209e-22
0.3486 	6.36799e-23
0.3493 	3.88681e-23
0.35 	3.08881e-23
0.3507 	2.30076e-23
0.3514 	1.60482e-23
0.3521 	1.24657e-23
0.3528 	8.4284e-24
0.3535 	3.77891e-24
0.3542 	1.87018e-24
0.3549 	1.48407e-24
0.3556 	1.11071e-24
0.3563 	7.53725e-25
0.357 	5.81785e-25
0.3577 	3.98278e-25
0.3584 	1.85634e-25
0.3591 	7.19043e-26
0.3598 	5.70889e-26
0.3605 	4.27913e-26
0.3612 	2.87008e-26
0.3619 	2.17037e-26
0.3626 	1.50379e-26
0.3633 	7.07832e-27
0.364 	1.82913e-27
0.3647 	1.45854e-27
0.3654 	1.09697e-27
0.3661 	7.42158e-28
0.3668 	5.42521e-28
0.3675 	3.85201e-28
0.3682 	1.83977e-28
0.3689 	2.48259e-29
0.3696 	1.99383e-29
0.3703 	1.51096e-29
0.371 	1.03596e-29
0.3717 	7.34737e-30
0.3724 	5.30064e-30
0.3731 	2.67763e-30
0.3738 	1.51302e-31
0.3745 	1.22316e-31
0.3752 	9.35123e-32
0.3759 	6.51651e-32
0.3766 	4.49024e-32
0.3773 	3.2724e-32
0.378 	1.76891e-32
0.3787 	1.5204e-33
0.3794 	3.00609e-34
0.3801 	2.31079e-34
0.3808 	1.63748e-34
0.3815 	1.09793e-34
0.3822 	7.99126e-35
0.3829 	4.57239e-35
0.3836 	8.33462e-36
0.3843 	2.73237e-37
0.385 	2.10297e-37
0.3857 	1.51422e-37
0.3864 	9.92436e-38
0.3871 	7.16144e-38
0.3878 	4.24421e-38
0.3885 	1.12385e-38
0.3892 	8.2336e-41
0.3899 	6.36258e-41
0.3906 	4.63285e-41
0.3913 	2.98819e-41
0.392 	2.14348e-41
0.3927 	1.29388e-41
0.3934 	4.32279e-42
0.3941 	1.33278e-44
0.3948 	1.03897e-44
0.3955 	7.64064e-45
0.3962 	4.96729e-45
0.3969 	3.55398e-45
0.3976 	2.2316e-45
0.3983 	8.74577e-46
0.399 	2.05245e-48
0.3997 	1.6138e-48
0.4004 	1.19773e-48
0.4011 	7.98588e-49
0.4018 	5.59751e-49
0.4025 	3.64584e-49
0.4032 	1.60594e-49
0.4039 	3.03455e-52
0.4046 	2.40579e-52
0.4053 	1.80095e-52
0.406 	1.22803e-52
0.4067 	8.44687e-53
0.4074 	5.66669e-53
0.4081 	2.74172e-53
0.4088 	4.3434e-56
0.4095 	3.47043e-56
0.4102 	2.61914e-56
0.4109 	1.8221e-56
0.4116 	1.23144e-56
0.4123 	8.47145e-57
0.413 	4.42527e-57
0.4137 	3.00576e-58
0.4144 	4.864e-60
0.4151 	3.69902e-60
0.4158 	2.62019e-60
0.4165 	1.74179e-60
0.4172 	1.22416e-60
0.4179 	6.81598e-61
0.4186 	1.20927e-61
0.4193 	6.62503e-64
0.42 	5.07414e-64
0.4207 	3.65338e-64
0.4214 	2.39145e-64
0.4221 	1.71185e-64
0.4228 	1.00571e-64
0.4235 	2.654e-65
0.4242 	8.75718e-68
0.4249 	6.77476e-68
0.4256 	4.93353e-68
0.4263 	3.18366e-68
0.427 	2.31551e-68
0.4277 	1.4237e-68
0.4284 	4.75395e-69
0.4291 	1.12211e-71
0.4298 	8.75942e-72
0.4305 	6.44537e-72
0.4312 	4.19039e-72
0.4319 	3.02884e-72
0.4326 	1.93607e-72
0.4333 	7.58498e-73
0.434 	1.19238e-75
0.4347 	3.60747e-76
0.4354 	1.57016e-76
0.4361 	4.24216e-76
0.4368 	3.79951e-76
0.4375 	2.50608e-76
0.4382 	1.09223e-76
0.4389 	-4.39448e-76
0.4396 	-2.48149e-75
0.4403 	-2.77391e-75
0.441 	-7.33515e-76
0.4417 	-6.2029e-78
0.4424 	-8.37824e-78
0.4431 	-9.28008e-78
0.4438 	-2.99412e-76
0.4445 	-4.35198e-75
0.4452 	-6.08957e-75
0.4459 	-2.03969e-75
0.4466 	-1.59933e-77
0.4473 	-1.84574e-77
0.448 	-1.9762e-77
0.4487 	-2.0631e-77
0.4494 	-5.36367e-75
0.4501 	-9.47402e-75
0.4508 	-3.72258e-75
0.4515 	-2.58879e-77
0.4522 	-2.76983e-77
0.4529 	-2.88531e-77
0.4536 	-2.95423e-77
0.4543 	-5.2535e-75
0.455 	-1.1902e-74
0.4557 	-5.25503e-75
0.4564 	-3.2591e-77
0.4571 	-3.33141e-77
0.4578 	-3.38575e-77
0.4585 	-3.41749e-77
0.4592 	-4.30725e-75
0.4599 	-1.09541e-74
0.4606 	-6.20657e-75
0.4613 	-3.47626e-77
0.462 	-3.44518e-77
0.4627 	-3.4215e-77
0.4634 	-3.41502e-77
0.4641 	-3.01526e-75
0.4648 	-8.97753e-75
0.4655 	-6.42173e-75
0.4662 	-4.58709e-76
0.4669 	-3.18559e-77
0.4676 	-3.09595e-77
0.4683 	-3.06227e-77
0.469 	-1.78759e-75
0.4697 	-6.7077e-75
0.4704 	-6.00407e-75
0.4711 	-1.08264e-75
0.4718 	-2.70319e-77
0.4725 	-2.57504e-77
0.4732 	-2.52865e-77
0.4739 	-8.40408e-76
0.4746 	-4.64599e-75
0.4753 	-5.18901e-75
0.476 	-1.38195e-75
0.4767 	-2.14642e-77
0.4774 	-2.01785e-77
0.4781 	-1.96033e-77
0.4788 	-2.1907e-76
0.4795 	-3.01773e-75
0.4802 	-4.21676e-75
0.4809 	-1.41675e-75
0.4816 	-1.61943e-77
0.4823 	-1.50843e-77
0.483 	-1.44845e-77
0.4837 	-1.40712e-77
0.4844 	-1.85039e-75
0.4851 	-3.2628e-75
0.4858 	-1.28409e-75
0.4865 	-1.17524e-77
0.4872 	-1.08735e-77
0.4879 	-1.032e-77
0.4886 	-9.99232e-78
0.4893 	-1.07252e-75
0.49 	-2.42491e-75
0.4907 	-1.07168e-75
0.4914 	-8.28158e-78
0.4921 	-7.6236e-78
0.4928 	-7.15149e-78
0.4935 	-6.90824e-78
0.4942 	-5.84639e-76
0.4949 	-1.48346e-75
0.4956 	-8.40926e-76
0.4963 	-5.70549e-78
0.497 	-5.23045e-78
0.4977 	-4.848e-78
0.4984 	-4.67547e-78
0.4991 	-2.9544e-76
0.4998 	-8.77141e-76
0.5005 	-6.27539e-76
0.5012 	-4.54152e-77
0.5019 	-3.52468e-78
0.5026 	-3.22536e-78
0.5033 	-3.10691e-78
0.504 	-1.34016e-76
0.5047 	-5.00776e-76
0.5054 	-4.48217e-76
0.5061 	-8.11714e-77
0.5068 	-2.33694e-78
0.5075 	-2.10848e-78
0.5082 	-2.02914e-78
0.5089 	-5.02315e-77
0.5096 	-2.75466e-76
0.5103 	-3.0756e-76
0.511 	-8.21351e-77
0.5117 	-1.52484e-78
0.5124 	-1.36694e-78
0.5131 	-1.30213e-78
0.5138 	-1.08748e-77
0.5145 	-1.45568e-76
0.5152 	-2.03258e-76
0.5159 	-6.84402e-77
0.5166 	-9.78511e-79
0.5173 	-8.72802e-79
0.518 	-8.20317e-79
0.5187 	-7.86758e-79
0.5194 	-7.36174e-77
0.5201 	-1.29631e-76
0.5208 	-5.11158e-77
0.5215 	-6.169e-79
0.5222 	-5.47523e-79
0.5229 	-5.06822e-79
0.5236 	-4.85592e-79
0.5243 	-3.54397e-77
0.525 	-7.99324e-77
0.5257 	-3.53893e-77
0.5264 	-3.81693e-79
0.5271 	-3.37154e-79
0.5278 	-3.06837e-79
0.5285 	-2.93662e-79
0.5292 	-1.61043e-77
0.5299 	-4.07059e-77
0.5306 	-2.31067e-77
0.5313 	-2.31566e-79
0.532 	-2.03644e-79
0.5327 	-1.8192e-79
0.5334 	-1.73904e-79
0.5341 	-6.8054e-78
0.5348 	-2.00764e-77
0.5355 	-1.43754e-77
0.5362 	-1.0857e-78
0.5369 	-1.20582e-79
0.5376 	-1.05585e-79
0.5383 	-1.00809e-79
0.539 	-2.59435e-78
0.5397 	-9.58484e-78
0.5404 	-8.57987e-78
0.5411 	-1.5783e-78
0.5418 	-6.99651e-80
0.5425 	-5.9979e-80
0.5432 	-5.71924e-80
0.5439 	-8.26179e-79
0.5446 	-4.42499e-78
0.5453 	-4.93636e-78
0.546 	-1.33115e-78
0.5467 	-3.97701e-80
0.5474 	-3.38444e-80
0.5481 	-3.17552e-80
0.5488 	-1.5972e-79
0.5495 	-1.97189e-78
0.5502 	-2.7475e-78
0.5509 	-9.31716e-79
0.5516 	-2.21431e-80
0.5523 	-1.87808e-80
0.553 	-1.72564e-80
0.5537 	-1.6368e-80
0.5544 	-8.45651e-79
0.5551 	-1.48332e-78
0.5558 	-5.88185e-79
0.5565 	-1.20752e-80
0.5572 	-1.02136e-80
0.5579 	-9.17884e-81
0.5586 	-8.69358e-81
0.5593 	-3.473e-79
0.56 	-7.78385e-79
0.5607 	-3.46221e-79
0.5614 	-6.44931e-81
0.5621 	-5.44319e-81
0.5628 	-4.77958e-81
0.5635 	-4.52028e-81
0.5642 	-1.35478e-79
0.5649 	-3.39334e-79
0.5656 	-1.93235e-79
0.5663 	-3.37365e-81
0.567 	-2.84265e-81
0.5677 	-2.4368e-81
0.5684 	-2.30127e-81
0.5691 	-4.94758e-80
0.5698 	-1.4396e-79
0.5705 	-1.03257e-79
0.5712 	-8.47874e-81
0.5719 	-1.45472e-81
0.5726 	-1.21659e-81
0.5733 	-1.14728e-81
0.574 	-1.64365e-80
0.5747 	-5.93711e-80
0.5754 	-5.31528e-80
0.5761 	-1.00699e-80
0.5768 	-7.29491e-82
0.5775 	-5.9488e-82
0.5782 	-5.60198e-82
0.5789 	-4.63278e-81
0.5796 	-2.37653e-80
0.5803 	-2.64671e-80
0.581 	-7.26132e-81
0.5817 	-3.58462e-82
0.5824 	-2.90528e-82
0.5831 	-2.67943e-82
0.5838 	-8.49517e-82
0.5845 	-9.21227e-81
0.5852 	-1.27862e-80
0.5859 	-4.38803e-81
0.5866 	-1.72602e-82
0.5873 	-1.39888e-82
0.588 	-1.25553e-82
0.5887 	-1.17414e-82
0.5894 	-3.44679e-81
0.5901 	-6.00591e-81
0.5908 	-2.40306e-81
0.5915 	-8.14393e-83
0.5922 	-6.60313e-83
0.5929 	-5.76433e-83
0.5936 	-5.38254e-83
0.5943 	-1.2386e-81
0.595 	-2.74753e-81
0.5957 	-1.23085e-81
0.5964 	-3.76536e-83
0.5971 	-3.05546e-83
0.5978 	-2.59334e-83
0.5985 	-2.41801e-83
0.5992 	-4.24117e-82
0.5999 	-1.04721e-81
0.6006 	-5.99136e-82
0.6013 	-1.70597e-83
0.602 	-1.38595e-83
0.6027 	-1.14343e-83
0.6034 	-1.0646e-83
0.6041 	-1.36527e-82
0.6048 	-3.89078e-82
0.6055 	-2.79731e-82
0.6062 	-2.56237e-83
0.6069 	-6.16253e-84
0.6076 	-4.94147e-84
0.6083 	-4.59436e-84
0.609 	-4.02597e-83
0.6097 	-1.40747e-82
0.6104 	-1.26006e-82
0.6111 	-2.48428e-83
0.6118 	-2.68602e-84
0.6125 	-2.09341e-84
0.6132 	-1.94374e-84
0.6139 	-1.02383e-83
0.6146 	-4.94948e-83
0.6153 	-5.49798e-83
0.616 	-1.54361e-83
0.6167 	-1.14767e-84
0.6174 	-8.89984e-85
0.6181 	-8.06288e-85
0.6188 	-1.82328e-84
0.6195 	-1.68829e-83
0.6202 	-2.33028e-83
0.6209 	-8.12365e-84
0.6216 	-4.80736e-85
0.6223 	-3.74074e-85
0.623 	-3.2799e-85
0.6237 	-3.01834e-85
0.6244 	-5.56866e-84
0.6251 	-9.61453e-84
0.6258 	-3.89178e-84
0.6265 	-1.97435e-85
0.6272 	-1.54193e-85
0.6279 	-1.30869e-85
0.6286 	-1.20265e-85
0.6293 	-1.76796e-84
0.63 	-3.86791e-84
0.6307 	-1.74847e-84
0.6314 	-7.95111e-86
0.6321 	-6.23373e-86
0.6328 	-5.1229e-86
0.6335 	-4.70164e-86
0.6342 	-5.36396e-85
0.6349 	-1.29999e-84
0.6356 	-7.48024e-85
0.6363 	-3.14049e-86
0.637 	-2.47209e-86
0.6377 	-1.96796e-86
0.6384 	-1.80391e-86
0.6391 	-1.5365e-85
0.6398 	-4.26513e-85
0.6405 	-3.07479e-85
0.6412 	-3.16856e-86
0.6419 	-9.61832e-87
0.6426 	-7.42107e-87
0.6433 	-6.79464e-87
0.644 	-4.06211e-86
0.6447 	-1.36463e-85
0.6454 	-1.2214e-85
0.6461 	-2.51959e-86
0.6468 	-3.67246e-87
0.6475 	-2.74798e-87
0.6482 	-2.51337e-87
0.6489 	-9.42155e-87
0.6496 	-4.25199e-86
0.6503 	-4.70737e-86
0.651 	-1.35679e-86
0.6517 	-1.37647e-87
0.6524 	-1.02629e-87
0.6531 	-9.13371e-88
0.6538 	-1.6363e-87
0.6545 	-1.2878e-86
0.6552 	-1.76537e-86
0.6559 	-6.26436e-87
0.6566 	-5.06615e-88
0.6573 	-3.80471e-88
0.658 	-3.26227e-88
0.6587 	-2.95132e-88
0.6594 	-3.78101e-87
0.6601 	-6.45666e-87
0.6608 	-2.64772e-87
0.6615 	-1.83175e-88
0.6622 	-1.38553e-88
0.6629 	-1.1457e-88
0.6636 	-1.03556e-88
0.6643 	-1.07181e-87
0.665 	-2.30715e-87
0.6657 	-1.05346e-87
0.6664 	-6.50907e-89
0.6671 	-4.95829e-89
0.6678 	-3.95824e-89
0.6685 	-3.57498e-89
0.6692 	-2.91506e-88
0.6699 	-6.91479e-88
0.6706 	-4.00379e-88
0.6713 	-2.27429e-89
0.672 	-1.74448e-89
0.6727 	-1.34596e-89
0.6734 	-1.21486e-89
0.6741 	-7.52692e-89
0.6748 	-2.02821e-88
0.6755 	-1.46635e-88
0.6762 	-1.69532e-89
0.6769 	-6.03704e-90
0.6776 	-4.50686e-90
0.6783 	-4.06583e-90
0.679 	-1.80969e-89
0.6797 	-5.81779e-89
0.6804 	-5.20476e-89
0.6811 	-1.1259e-89
0.6818 	-2.05596e-90
0.6825 	-1.48675e-90
0.6832 	-1.34074e-90
0.6839 	-3.88644e-90
0.6846 	-1.63017e-89
0.6853 	-1.79761e-89
0.686 	-5.32933e-90
0.6867 	-6.8934e-91
0.6874 	-4.97564e-91
0.6881 	-4.35807e-91
0.6888 	-6.62496e-91
0.6895 	-4.45481e-90
0.6902 	-6.05877e-90
0.6909 	-2.19186e-90
0.6916 	-2.2764e-91
0.6923 	-1.66101e-91
0.693 	-1.39677e-91
0.6937 	-1.24396e-91
0.6944 	-1.18432e-90
0.6951 	-1.9971e-90
0.6958 	-8.30782e-91
0.6965 	-7.57128e-92
0.6972 	-6.08875e-92
0.6979 	-5.29304e-92
0.6986 	-4.92474e-92
0.6993 	-4.65316e-91
0.7 	-9.95863e-91
