0 	1
0.0007 	1
0.0014 	1
0.0021 	1
0.0028 	1
0.0035 	1
0.0042 	1
0.0049 	1
0.0056 	1
0.0063 	1
0.007 	1
0.0077 	1
0.0084 	1
0.0091 	1
0.0098 	1
0.0105 	1
0.0112 	1
0.0119 	1
0.0126 	1
0.0133 	1
0.014 	1
0.0147 	1
0.0154 	1
0.0161 	1
0.0168 	1
0.0175 	1
0.0182 	1
0.0189 	1
0.0196 	1
0.0203 	1
0.021 	1
0.0217 	1
0.0224 	1
0.0231 	1
0.0238 	1
0.0245 	1
0.0252 	1
0.0259 	1
0.0266 	1
0.0273 	1
0.028 	1
0.0287 	1
0.0294 	1
0.0301 	1
0.0308 	1
0.0315 	1
0.0322 	1
0.0329 	1
0.0336 	1
0.0343 	1
0.035 	1
0.0357 	1
0.0364 	1
0.0371 	1
0.0378 	1
0.0385 	1
0.0392 	1
0.0399 	1
0.0406 	1
0.0413 	1
0.042 	1
0.0427 	1
0.0434 	1
0.0441 	1
0.0448 	1
0.0455 	1
0.0462 	1
0.0469 	1
0.0476 	1
0.0483 	1
0.049 	1
0.0497 	1
0.0504 	1
0.0511 	1
0.0518 	1
0.0525 	1
0.0532 	1
0.0539 	1
0.0546 	1
0.0553 	1
0.056 	1
0.0567 	1
0.0574 	1
0.0581 	1
0.0588 	1
0.0595 	1
0.0602 	1
0.0609 	1
0.0616 	1
0.0623 	1
0.063 	1
0.0637 	1
0.0644 	1
0.0651 	1
0.0658 	1
0.0665 	1
0.0672 	1
0.0679 	1
0.0686 	1
0.0693 	1
0.07 	1
0.0707 	1
0.0714 	1
0.0721 	1
0.0728 	1
0.0735 	1
0.0742 	1
0.0749 	1
0.0756 	1
0.0763 	1
0.077 	1
0.0777 	1
0.0784 	1
0.0791 	1
0.0798 	1
0.0805 	1
0.0812 	1
0.0819 	1
0.0826 	1
0.0833 	1
0.084 	1
0.0847 	1
0.0854 	1
0.0861 	1
0.0868 	1
0.0875 	1
0.0882 	1
0.0889 	1
0.0896 	1
0.0903 	1
0.091 	1
0.0917 	1
0.0924 	1
0.0931 	1
0.0938 	1
0.0945 	1
0.0952 	1
0.0959 	1
0.0966 	1
0.0973 	1
0.098 	1
0.0987 	1
0.0994 	1
0.1001 	1
0.1008 	1
0.1015 	1
0.1022 	1
0.1029 	1
0.1036 	1
0.1043 	1
0.105 	1
0.1057 	1
0.1064 	1
0.1071 	1
0.1078 	1
0.1085 	1
0.1092 	1
0.1099 	1
0.1106 	1
0.1113 	1
0.112 	1
0.1127 	1
0.1134 	1
0.1141 	1
0.1148 	1
0.1155 	1
0.1162 	1
0.1169 	1
0.1176 	1
0.1183 	1
0.119 	1
0.1197 	1
0.1204 	1
0.1211 	1
0.1218 	1
0.1225 	1
0.1232 	1
0.1239 	1
0.1246 	1
0.1253 	1
0.126 	1
0.1267 	1
0.1274 	1
0.1281 	1
0.1288 	1
0.1295 	1
0.1302 	1
0.1309 	1
0.1316 	1
0.1323 	1
0.133 	1
0.1337 	1
0.1344 	1
0.1351 	1
0.1358 	1
0.1365 	1
0.1372 	1
0.1379 	1
0.1386 	1
0.1393 	1
0.14 	1
0.1407 	1
0.1414 	1
0.1421 	1
0.1428 	1
0.1435 	1
0.1442 	1
0.1449 	1
0.1456 	1
0.1463 	1
0.147 	1
0.1477 	1
0.1484 	1
0.1491 	1
0.1498 	1
0.1505 	1
0.1512 	1
0.1519 	1
0.1526 	1
0.1533 	1
0.154 	1
0.1547 	1
0.1554 	1
0.1561 	1
0.1568 	1
0.1575 	1
0.1582 	1
0.1589 	1
0.1596 	1
0.1603 	1
0.161 	1
0.1617 	1
0.1624 	1
0.1631 	1
0.1638 	1
0.1645 	1
0.1652 	1
0.1659 	1
0.1666 	1
0.1673 	1
0.168 	1
0.1687 	1
0.1694 	1
0.1701 	1
0.1708 	1
0.1715 	1
0.1722 	1
0.1729 	1
0.1736 	1
0.1743 	1
0.175 	1
0.1757 	1
0.1764 	1
0.1771 	1
0.1778 	1
0.1785 	1
0.1792 	1
0.1799 	1
0.1806 	1
0.1813 	1
0.182 	1
0.1827 	1
0.1834 	1
0.1841 	1
0.1848 	1
0.1855 	1
0.1862 	1
0.1869 	1
0.1876 	1
0.1883 	1
0.189 	1
0.1897 	1
0.1904 	1
0.1911 	1
0.1918 	1
0.1925 	1
0.1932 	1
0.1939 	1
0.1946 	1
0.1953 	1
0.196 	1
0.1967 	0.999992
0.1974 	0.999979
0.1981 	0.999969
0.1988 	0.999963
0.1995 	0.999946
0.2002 	0.999931
0.2009 	0.999922
0.2016 	0.999294
0.2023 	0.998049
0.203 	0.996936
0.2037 	0.99633
0.2044 	0.994576
0.2051 	0.992784
0.2058 	0.991294
0.2065 	0.983535
0.2072 	0.964495
0.2079 	0.945859
0.2086 	0.933125
0.2093 	0.906594
0.21 	0.8763
0.2107 	0.847767
0.2114 	0.812519
0.2121 	0.752656
0.2128 	0.692792
0.2135 	0.63821
0.2142 	0.563923
0.2149 	0.478445
0.2156 	0.391634
0.2163 	0.307201
0.217 	0.256566
0.2177 	0.205932
0.2184 	0.150588
0.2191 	0.112137
0.2198 	0.0918907
0.2205 	0.069361
0.2212 	0.0459181
0.2219 	0.0360024
0.2226 	0.0271273
0.2233 	0.0141803
0.224 	0.00416317
0.2247 	0.00351488
0.2254 	0.00273266
0.2261 	0.00184999
0.2268 	0.00141977
0.2275 	0.00111295
0.2282 	0.000657415
0.2289 	0.000177012
0.2296 	0.000149259
0.2303 	0.000117977
0.231 	8.19918e-05
0.2317 	6.08041e-05
0.2324 	4.78374e-05
0.2331 	3.0802e-05
0.2338 	8.17332e-06
0.2345 	6.92892e-06
0.2352 	5.57364e-06
0.2359 	3.94115e-06
0.2366 	2.83421e-06
0.2373 	2.25284e-06
0.238 	1.55641e-06
0.2387 	4.49687e-07
0.2394 	3.1937e-07
0.2401 	2.61526e-07
0.2408 	1.87859e-07
0.2415 	1.31265e-07
0.2422 	1.05405e-07
0.2429 	7.76372e-08
0.2436 	2.73759e-08
0.2443 	1.46782e-08
0.245 	1.22252e-08
0.2457 	8.91416e-09
0.2464 	6.06588e-09
0.2471 	4.9143e-09
0.2478 	3.76272e-09
0.2485 	1.56523e-09
0.2492 	6.85098e-10
0.2499 	5.75656e-10
0.2506 	4.33196e-10
0.2513 	2.92076e-10
0.252 	2.39939e-10
0.2527 	1.87802e-10
0.2534 	9.6085e-11
0.2541 	4.20961e-11
0.2548 	3.59404e-11
0.2555 	2.85751e-11
0.2562 	2.0726e-11
0.2569 	1.71862e-11
0.2576 	1.39779e-11
0.2583 	9.30029e-12
0.259 	5.50375e-12
0.2597 	4.6809e-12
0.2604 	3.79454e-12
0.2611 	2.86056e-12
0.2618 	2.3167e-12
0.2625 	1.87924e-12
0.2632 	1.34566e-12
0.2639 	8.27432e-13
0.2646 	6.973e-13
0.2653 	5.60722e-13
0.266 	4.15551e-13
0.2667 	3.21258e-13
0.2674 	2.55233e-13
0.2681 	1.78931e-13
0.2688 	9.1075e-14
0.2695 	7.62614e-14
0.2702 	6.09329e-14
0.2709 	4.43176e-14
0.2716 	3.24231e-14
0.2723 	2.52496e-14
0.273 	1.73199e-14
0.2737 	6.90953e-15
0.2744 	5.2077e-15
0.2751 	4.15649e-15
0.2758 	2.98952e-15
0.2765 	2.06729e-15
0.2772 	1.58557e-15
0.2779 	1.08201e-15
0.2786 	3.65302e-16
0.2793 	1.83104e-16
0.28 	1.46684e-16
0.2807 	1.05113e-16
0.2814 	6.89074e-17
0.2821 	5.23718e-17
0.2828 	3.58362e-17
0.2835 	1.10529e-17
0.2842 	1.82529e-18
0.2849 	1.46982e-18
0.2856 	1.06898e-18
0.2863 	6.78289e-19
0.287 	5.17905e-19
0.2877 	3.57521e-19
0.2884 	1.27218e-19
0.2891 	3.60416e-21
0.2898 	2.91884e-21
0.2905 	2.16226e-21
0.2912 	1.37717e-21
0.2919 	1.03187e-21
0.2926 	7.20397e-22
0.2933 	3.0316e-22
0.294 	1.47584e-24
0.2947 	1.20006e-24
0.2954 	9.04354e-25
0.2961 	5.93712e-25
0.2968 	4.26941e-25
0.2975 	2.99409e-25
0.2982 	1.43372e-25
0.2989 	8.87186e-28
0.2996 	7.2567e-28
0.3003 	5.55336e-28
0.301 	3.73245e-28
0.3017 	2.60512e-28
0.3024 	1.86313e-28
0.3031 	9.93794e-29
0.3038 	1.19141e-31
0.3045 	9.77504e-32
0.3052 	7.57333e-32
0.3059 	5.21506e-32
0.3066 	3.53251e-32
0.3073 	2.52569e-32
0.308 	1.43612e-32
0.3087 	9.67152e-34
0.3094 	8.68183e-36
0.3101 	6.80629e-36
0.3108 	4.78814e-36
0.3115 	3.16996e-36
0.3122 	2.27173e-36
0.3129 	1.35043e-36
0.3136 	2.38959e-37
0.3143 	6.7311e-40
0.315 	5.33096e-40
0.3157 	3.82108e-40
0.3164 	2.48617e-40
0.3171 	1.79286e-40
0.3178 	1.09954e-40
0.3185 	2.90794e-41
0.3192 	5.02176e-44
0.3199 	4.00094e-44
0.3206 	2.92318e-44
0.3213 	1.8769e-44
0.322 	1.36322e-44
0.3227 	8.49551e-45
0.3234 	2.86875e-45
0.3241 	3.66979e-48
0.3248 	2.94436e-48
0.3255 	2.18827e-48
0.3262 	1.41991e-48
0.3269 	1.01756e-48
0.3276 	6.43362e-49
0.3283 	2.54539e-49
0.329 	2.61016e-52
0.3297 	2.11242e-52
0.3304 	1.59595e-52
0.3311 	1.06543e-52
0.3318 	7.42302e-53
0.3325 	4.75732e-53
0.3332 	2.09356e-53
0.3339 	1.79844e-56
0.3346 	1.46683e-56
0.3353 	1.12516e-56
0.336 	7.70092e-57
0.3367 	5.24968e-57
0.3374 	3.40925e-57
0.3381 	1.61173e-57
0.3388 	1.18973e-60
0.3395 	9.7652e-61
0.3402 	7.59093e-61
0.3409 	5.31119e-61
0.3416 	3.56186e-61
0.3423 	2.34297e-61
0.343 	1.16019e-61
0.3437 	7.80372e-63
0.3444 	6.1724e-65
0.3451 	4.85926e-65
0.3458 	3.46673e-65
0.3465 	2.29796e-65
0.3472 	1.53198e-65
0.3479 	7.81181e-66
0.3486 	1.38208e-66
0.3493 	3.68437e-69
0.35 	2.93693e-69
0.3507 	2.1318e-69
0.3514 	1.40186e-69
0.3521 	9.47653e-70
0.3528 	4.93448e-70
0.3535 	1.29611e-70
0.3542 	2.07089e-73
0.3549 	1.66606e-73
0.3556 	1.23179e-73
0.3563 	8.05871e-74
0.357 	5.52351e-74
0.3577 	2.98832e-74
0.3584 	9.64931e-75
0.3591 	1.09353e-77
0.3598 	8.82116e-78
0.3605 	6.63761e-78
0.3612 	4.42629e-78
0.3619 	3.0316e-78
0.3626 	1.69973e-78
0.3633 	6.22884e-79
0.364 	-1.89783e-80
0.3647 	-7.32271e-80
0.3654 	-6.56002e-80
0.3661 	-1.15665e-80
0.3668 	-6.44297e-84
0.3675 	-3.02758e-83
0.3682 	-6.68075e-83
0.3689 	-6.14074e-81
0.3696 	-3.43156e-80
0.3703 	-3.83389e-80
0.371 	-1.016e-80
0.3717 	-8.21468e-83
0.3724 	-6.04496e-83
0.3731 	-4.75563e-83
0.3738 	-1.00212e-81
0.3745 	-1.4376e-80
0.3752 	-2.01072e-80
0.3759 	-6.73164e-81
0.3766 	-3.89981e-83
0.3773 	-2.93168e-83
0.378 	-2.22469e-83
0.3787 	-2.19121e-83
0.3794 	-5.13824e-81
0.3801 	-9.07378e-81
0.3808 	-3.56296e-81
0.3815 	-1.85022e-83
0.3822 	-1.35122e-83
0.3829 	-9.19081e-84
0.3836 	-9.02234e-84
0.3843 	-1.59866e-81
0.385 	-3.62188e-81
0.3857 	-1.59825e-81
0.3864 	-7.77589e-84
0.3871 	-5.53959e-84
0.3878 	-3.30329e-84
0.3885 	-3.22533e-84
0.3892 	-4.42883e-82
0.3899 	-1.12684e-81
0.3906 	-6.38161e-82
0.3913 	-2.84853e-84
0.392 	-1.99558e-84
0.3927 	-1.14263e-84
0.3934 	-9.97223e-85
0.3941 	-1.08784e-82
0.3948 	-3.24386e-82
0.3955 	-2.31948e-82
0.3962 	-1.62944e-83
0.3969 	-6.39993e-85
0.3976 	-3.70708e-85
0.3983 	-2.88109e-85
0.399 	-2.30262e-83
0.3997 	-8.67088e-83
0.4004 	-7.76025e-83
0.4011 	-1.39043e-83
0.4018 	-1.92517e-85
0.4025 	-1.13529e-85
0.4032 	-7.85376e-86
0.4039 	-3.86492e-84
0.4046 	-2.15443e-83
0.4053 	-2.4068e-83
0.406 	-6.38433e-84
0.4067 	-5.46745e-86
0.4074 	-3.28874e-86
0.4081 	-2.02676e-86
0.4088 	-3.49966e-85
0.4095 	-4.97513e-84
0.4102 	-6.95701e-84
0.4109 	-2.3307e-84
0.4116 	-1.46954e-86
0.4123 	-9.02259e-87
0.413 	-4.96407e-87
0.4137 	-4.77731e-87
0.4144 	-1.06595e-84
0.4151 	-1.8822e-84
0.4158 	-7.39098e-85
0.4165 	-3.74551e-87
0.4172 	-2.34709e-87
0.4179 	-1.15619e-87
0.4186 	-1.10991e-87
0.4193 	-2.11044e-85
0.42 	-4.78247e-85
0.4207 	-2.10976e-85
0.4214 	-9.06744e-88
0.4221 	-5.79637e-88
0.4228 	-2.5654e-88
0.4235 	-2.4566e-88
0.4242 	-3.83123e-86
0.4249 	-9.75334e-86
0.4256 	-5.52194e-86
0.4263 	-2.08777e-88
0.427 	-1.3604e-88
0.4277 	-6.33032e-89
0.4284 	-5.18612e-89
0.4291 	-6.28028e-87
0.4298 	-1.87396e-86
0.4305 	-1.33975e-86
0.4312 	-9.34885e-88
0.4319 	-3.03742e-89
0.4326 	-1.49775e-89
0.4333 	-1.04573e-89
0.434 	-9.00058e-88
0.4347 	-3.39188e-87
0.4354 	-3.03552e-87
0.4361 	-5.43013e-88
0.4368 	-6.45906e-90
0.4375 	-3.35301e-90
0.4382 	-2.01794e-90
0.4389 	-1.03695e-88
0.4396 	-5.7858e-88
0.4403 	-6.46364e-88
0.441 	-1.71346e-88
0.4417 	-1.31052e-90
0.4424 	-7.11726e-91
0.4431 	-3.72802e-91
0.4438 	-6.51624e-90
0.4445 	-9.27926e-89
0.4452 	-1.29761e-88
0.4459 	-4.34597e-89
0.4466 	-2.53797e-91
0.4473 	-1.43484e-91
0.448 	-6.60287e-92
0.4487 	-6.22168e-92
0.4494 	-1.39592e-89
0.4501 	-2.46488e-89
0.4508 	-9.67803e-90
0.4515 	-4.69779e-92
0.4522 	-2.75233e-92
0.4529 	-1.12166e-92
0.4536 	-1.05386e-92
0.4543 	-1.95889e-90
0.455 	-4.4388e-90
0.4557 	-1.95813e-90
0.4564 	-8.31552e-93
0.4571 	-5.03052e-93
0.4578 	-1.83034e-93
0.4585 	-1.71482e-93
0.4592 	-2.54424e-91
0.4599 	-6.47591e-91
0.4606 	-3.66649e-91
0.4613 	-1.40978e-93
0.462 	-8.77723e-94
0.4627 	-3.45669e-94
0.4634 	-2.6821e-94
0.4641 	-3.00955e-92
0.4648 	-8.9769e-92
0.4655 	-6.41804e-92
0.4662 	-4.48709e-93
0.4669 	-1.46378e-94
0.4676 	-6.36709e-95
0.4683 	-4.03685e-95
0.469 	-3.13807e-93
0.4697 	-1.1817e-92
0.4704 	-1.05754e-92
0.4711 	-1.8935e-93
0.4718 	-2.33676e-95
0.4725 	-1.10147e-95
0.4732 	-5.85306e-96
0.4739 	-2.64954e-94
0.4746 	-1.47573e-93
0.4753 	-1.64851e-93
0.476 	-4.37297e-94
0.4767 	-3.57639e-96
0.4774 	-1.80159e-96
0.4781 	-8.18607e-97
0.4788 	-1.23462e-95
0.4795 	-1.74576e-94
0.4802 	-2.44086e-94
0.4809 	-8.17943e-95
0.4816 	-5.25591e-97
0.4823 	-2.79947e-97
0.483 	-1.10502e-97
0.4837 	-1.01461e-97
0.4844 	-1.94938e-95
0.4851 	-3.44104e-95
0.4858 	-1.35173e-95
0.4865 	-7.42416e-98
0.4872 	-4.14749e-98
0.4879 	-1.44207e-98
0.4886 	-1.32039e-98
0.4893 	-2.046e-96
0.49 	-4.63353e-96
0.4907 	-2.04492e-96
0.4914 	-1.00994e-98
0.4921 	-5.87868e-99
0.4928 	-1.82068e-99
0.4935 	-1.66257e-99
0.4942 	-2.0002e-97
0.4949 	-5.08663e-97
0.4956 	-2.88087e-97
0.4963 	-1.32434e-99
0.497 	-7.99045e-100
0.4977 	-2.73748e-100
0.4984 	-2.02856e-100
0.4991 	-1.794e-98
0.4998 	-5.3434e-98
0.5005 	-3.82104e-98
0.5012 	-2.6997e-99
0.5019 	-1.04419e-100
0.5026 	-4.1144e-101
0.5033 	-2.40014e-101
0.504 	-1.42839e-99
0.5047 	-5.36503e-99
0.5054 	-4.80153e-99
0.5061 	-8.62932e-100
0.5068 	-1.31422e-101
0.5075 	-5.76035e-102
0.5082 	-2.75736e-102
0.5089 	-9.28783e-101
0.5096 	-5.14483e-100
0.5103 	-5.74616e-100
0.511 	-1.52787e-100
0.5117 	-1.59636e-102
0.5124 	-7.61042e-103
0.5131 	-3.07779e-103
0.5138 	-3.39256e-102
0.5145 	-4.7e-101
0.5152 	-6.56819e-101
0.5159 	-2.20495e-101
0.5166 	-1.87385e-103
0.5173 	-9.56485e-104
0.518 	-3.34167e-104
0.5187 	-2.984e-104
0.5194 	-4.07636e-102
0.5201 	-7.18888e-102
0.5208 	-2.82813e-102
0.5215 	-2.12942e-104
0.5222 	-1.15034e-104
0.5229 	-3.53317e-105
0.5236 	-3.14884e-105
0.5243 	-3.33952e-103
0.525 	-7.55078e-103
0.5257 	-3.33671e-103
0.5264 	-2.34645e-105
0.5271 	-1.32967e-105
0.5278 	-3.64035e-106
0.5285 	-3.23864e-106
0.5292 	-2.56108e-104
0.5299 	-6.49683e-104
0.5306 	-3.68312e-104
0.5313 	-2.50993e-106
0.532 	-1.4818e-106
0.5327 	-4.53673e-107
0.5334 	-3.25141e-107
0.5341 	-1.81128e-105
0.5348 	-5.37289e-105
0.5355 	-3.84445e-105
0.5362 	-2.79994e-106
0.5369 	-1.5972e-107
0.5376 	-5.83305e-108
0.5383 	-3.18906e-108
0.539 	-1.14463e-106
0.5397 	-4.26761e-106
0.5404 	-3.8199e-106
0.5411 	-6.94161e-107
0.5418 	-1.66885e-108
0.5425 	-6.9277e-109
0.5432 	-3.05768e-109
0.5439 	-5.96375e-108
0.5446 	-3.25115e-107
0.5453 	-3.62928e-107
0.546 	-9.71899e-108
0.5467 	-1.69321e-109
0.5474 	-7.75379e-110
0.5481 	-2.86944e-110
0.5488 	-1.81741e-109
0.5495 	-2.37255e-108
0.5502 	-3.31078e-108
0.5509 	-1.11755e-108
0.5516 	-1.67173e-110
0.5523 	-8.27476e-111
0.553 	-2.63688e-111
0.5537 	-2.29462e-111
0.5544 	-1.65259e-109
0.5551 	-2.90604e-109
0.5558 	-1.14859e-109
0.5565 	-1.60791e-111
0.5572 	-8.47994e-112
0.5579 	-2.37468e-112
0.5586 	-2.06521e-112
0.5593 	-1.09352e-110
0.56 	-2.45983e-110
0.5607 	-1.09158e-110
0.5614 	-1.50878e-112
0.5621 	-8.38846e-113
0.5628 	-2.09788e-113
0.5635 	-1.82385e-113
0.5642 	-6.82533e-112
0.5649 	-1.7174e-111
0.5656 	-9.76764e-112
0.5663 	-1.38331e-113
0.567 	-8.04198e-114
0.5677 	-2.25087e-114
0.5684 	-1.58121e-114
0.5691 	-3.96102e-113
0.5698 	-1.15906e-112
0.5705 	-8.31051e-113
0.5712 	-6.66524e-114
0.5719 	-7.49201e-115
0.5726 	-2.5811e-115
0.5733 	-1.3467e-115
0.574 	-2.07791e-114
0.5747 	-7.55547e-114
0.5754 	-6.76607e-114
0.5761 	-1.27646e-114
0.5768 	-6.79861e-116
0.5775 	-2.71015e-116
0.5782 	-1.12766e-116
0.5789 	-9.21268e-116
0.5796 	-4.75647e-115
0.5803 	-5.30011e-115
0.581 	-1.45498e-115
0.5817 	-6.02119e-117
0.5824 	-2.67656e-117
0.5831 	-9.28187e-118
0.5838 	-2.67286e-117
0.5845 	-2.89121e-116
0.5852 	-4.01345e-116
0.5859 	-1.38149e-116
0.5866 	-5.20777e-118
0.5873 	-2.52018e-118
0.588 	-7.50673e-119
0.5887 	-6.37851e-119
0.5894 	-1.69472e-117
0.5901 	-2.94899e-117
0.5908 	-1.18534e-117
0.5915 	-4.3997e-119
0.5922 	-2.27959e-119
0.5929 	-5.96182e-120
0.5936 	-5.06546e-120
0.5943 	-9.5423e-119
0.595 	-2.10668e-118
0.5957 	-9.4924e-119
0.5964 	-3.63083e-120
0.5971 	-1.99009e-120
0.5978 	-4.64886e-121
0.5985 	-3.94963e-121
0.5992 	-5.13165e-120
0.5999 	-1.25387e-119
0.6006 	-7.21517e-120
0.6013 	-2.92797e-121
0.602 	-1.68241e-121
0.6027 	-4.36838e-122
0.6034 	-3.02229e-122
0.6041 	-2.60945e-121
0.6048 	-7.27745e-121
0.6055 	-5.25633e-121
0.6062 	-5.59573e-122
0.6069 	-1.38008e-122
0.6076 	-4.53065e-123
0.6083 	-2.26966e-123
0.609 	-1.23251e-122
0.6097 	-4.12046e-122
0.6104 	-3.69577e-122
0.6111 	-7.86589e-123
0.6118 	-1.10043e-123
0.6125 	-4.23974e-124
0.6132 	-1.67148e-124
0.6139 	-5.20391e-124
0.6146 	-2.27764e-123
0.6153 	-2.5221e-123
0.616 	-7.4949e-124
0.6167 	-8.53326e-125
0.6174 	-3.69823e-125
0.6181 	-1.20646e-125
0.6188 	-1.75979e-125
0.6195 	-1.22942e-124
0.6202 	-1.67778e-124
0.6209 	-6.13459e-125
0.6216 	-6.43835e-126
0.6223 	-3.05538e-126
0.623 	-8.53207e-127
0.6237 	-7.01347e-127
0.6244 	-6.47949e-126
0.6251 	-1.09218e-125
0.6258 	-4.61194e-126
0.6265 	-4.72899e-127
0.6272 	-2.41277e-127
0.6279 	-5.91167e-128
0.6286 	-4.85855e-128
0.6293 	-3.32977e-127
0.63 	-6.97802e-127
0.6307 	-3.27845e-127
0.6314 	-3.38387e-128
0.6321 	-1.83195e-128
0.6328 	-4.01373e-129
0.6335 	-3.29866e-129
0.6342 	-1.66272e-128
0.6349 	-3.77578e-128
0.6356 	-2.23719e-128
0.6363 	-2.36084e-129
0.637 	-1.34305e-129
0.6377 	-3.2526e-130
0.6384 	-2.19651e-130
0.6391 	-8.02368e-130
0.6398 	-2.01535e-129
0.6405 	-1.4796e-129
0.6412 	-2.44358e-130
0.6419 	-9.54066e-131
0.6426 	-3.00155e-131
0.6433 	-1.43538e-131
0.644 	-3.70445e-131
0.6447 	-1.06155e-130
0.6454 	-9.5469e-131
0.6461 	-2.49352e-131
0.6468 	-6.58457e-132
0.6475 	-2.46571e-132
0.6482 	-9.20632e-133
0.6489 	-1.60334e-132
0.6496 	-5.51524e-132
0.6503 	-6.03584e-132
0.651 	-2.03471e-132
0.6517 	-4.42214e-133
0.6524 	-1.87847e-133
0.6531 	-5.79678e-134
0.6538 	-6.21619e-134
0.6545 	-2.82197e-133
0.6552 	-3.7493e-133
0.6559 	-1.49406e-133
0.6566 	-2.89413e-134
0.6573 	-1.35355e-134
0.658 	-3.58437e-135
0.6587 	-2.82134e-135
0.6594 	-1.419e-134
0.6601 	-2.29298e-134
0.6608 	-1.02966e-134
0.6615 	-1.84835e-135
0.6622 	-9.32897e-136
0.6629 	-2.17825e-136
0.6636 	-1.71781e-136
0.6643 	-6.99977e-136
0.665 	-1.38478e-135
0.6657 	-6.80342e-136
0.6664 	-1.15403e-136
0.6671 	-6.19754e-137
0.6678 	-1.30288e-137
0.6685 	-1.02998e-137
0.6692 	-3.38758e-137
0.6699 	-7.20655e-137
0.6706 	-4.38057e-137
0.6713 	-7.06145e-138
0.672 	-3.99302e-138
0.6727 	-9.24584e-139
0.6734 	-6.09006e-139
0.6741 	-1.57895e-138
0.6748 	-3.67797e-138
0.6755 	-2.73139e-138
0.6762 	-5.66574e-139
0.6769 	-2.50646e-139
0.6776 	-7.694e-140
0.6783 	-3.55402e-140
0.679 	-7.06977e-140
0.6797 	-1.85602e-139
0.6804 	-1.67055e-139
0.6811 	-4.84205e-140
0.6818 	-1.53754e-140
0.6825 	-5.6728e-141
0.6832 	-2.04714e-141
0.6839 	-2.98582e-141
0.6846 	-9.26801e-141
0.6853 	-1.0076e-140
0.686 	-3.58503e-141
0.6867 	-9.23043e-142
0.6874 	-3.88254e-142
0.6881 	-1.16101e-142
0.6888 	-1.13176e-142
0.6895 	-4.4959e-142
0.6902 	-5.90477e-142
0.6909 	-2.42549e-142
0.6916 	-5.40776e-143
0.6923 	-2.50641e-143
0.693 	-6.37949e-144
0.6937 	-4.77931e-144
0.6944 	-2.09e-143
0.6951 	-3.33002e-143
0.6958 	-1.51992e-143
0.6965 	-3.04491e-144
0.6972 	-1.59476e-144
0.6979 	-4.65051e-145
0.6986 	-3.83553e-145
0.6993 	-1.60012e-144
0.7 	-3.1707e-144
