0 	1
0.0007 	1
0.0014 	1
0.0021 	1
0.0028 	1
0.0035 	1
0.0042 	1
0.0049 	1
0.0056 	1
0.0063 	1
0.007 	1
0.0077 	1
0.0084 	1
0.0091 	1
0.0098 	1
0.0105 	1
0.0112 	1
0.0119 	1
0.0126 	1
0.0133 	1
0.014 	1
0.0147 	1
0.0154 	1
0.0161 	1
0.0168 	1
0.0175 	1
0.0182 	1
0.0189 	1
0.0196 	1
0.0203 	1
0.021 	1
0.0217 	1
0.0224 	1
0.0231 	1
0.0238 	1
0.0245 	1
0.0252 	1
0.0259 	1
0.0266 	1
0.0273 	1
0.028 	1
0.0287 	1
0.0294 	1
0.0301 	1
0.0308 	1
0.0315 	1
0.0322 	1
0.0329 	1
0.0336 	1
0.0343 	1
0.035 	1
0.0357 	1
0.0364 	1
0.0371 	1
0.0378 	1
0.0385 	1
0.0392 	1
0.0399 	1
0.0406 	1
0.0413 	1
0.042 	1
0.0427 	1
0.0434 	1
0.0441 	1
0.0448 	1
0.0455 	1
0.0462 	1
0.0469 	1
0.0476 	1
0.0483 	1
0.049 	1
0.0497 	1
0.0504 	1
0.0511 	1
0.0518 	1
0.0525 	1
0.0532 	1
0.0539 	1
0.0546 	1
0.0553 	1
0.056 	1
0.0567 	1
0.0574 	1
0.0581 	1
0.0588 	1
0.0595 	1
0.0602 	1
0.0609 	1
0.0616 	1
0.0623 	1
0.063 	1
0.0637 	1
0.0644 	1
0.0651 	1
0.0658 	1
0.0665 	1
0.0672 	1
0.0679 	1
0.0686 	1
0.0693 	1
0.07 	1
0.0707 	1
0.0714 	1
0.0721 	1
0.0728 	1
0.0735 	1
0.0742 	1
0.0749 	1
0.0756 	1
0.0763 	1
0.077 	1
0.0777 	1
0.0784 	1
0.0791 	1
0.0798 	1
0.0805 	1
0.0812 	1
0.0819 	1
0.0826 	1
0.0833 	1
0.084 	1
0.0847 	1
0.0854 	1
0.0861 	1
0.0868 	1
0.0875 	1
0.0882 	1
0.0889 	1
0.0896 	1
0.0903 	1
0.091 	1
0.0917 	1
0.0924 	1
0.0931 	1
0.0938 	1
0.0945 	1
0.0952 	1
0.0959 	1
0.0966 	1
0.0973 	1
0.098 	1
0.0987 	1
0.0994 	1
0.1001 	1
0.1008 	1
0.1015 	1
0.1022 	1
0.1029 	1
0.1036 	1
0.1043 	1
0.105 	1
0.1057 	1
0.1064 	1
0.1071 	1
0.1078 	1
0.1085 	1
0.1092 	1
0.1099 	1
0.1106 	1
0.1113 	1
0.112 	1
0.1127 	1
0.1134 	1
0.1141 	1
0.1148 	1
0.1155 	1
0.1162 	1
0.1169 	1
0.1176 	1
0.1183 	1
0.119 	1
0.1197 	1
0.1204 	1
0.1211 	1
0.1218 	1
0.1225 	1
0.1232 	1
0.1239 	1
0.1246 	1
0.1253 	1
0.126 	1
0.1267 	1
0.1274 	1
0.1281 	1
0.1288 	1
0.1295 	1
0.1302 	1
0.1309 	1
0.1316 	1
0.1323 	1
0.133 	1
0.1337 	1
0.1344 	1
0.1351 	1
0.1358 	1
0.1365 	1
0.1372 	1
0.1379 	1
0.1386 	1
0.1393 	1
0.14 	1
0.1407 	1
0.1414 	1
0.1421 	1
0.1428 	1
0.1435 	1
0.1442 	1
0.1449 	1
0.1456 	1
0.1463 	1
0.147 	1
0.1477 	1
0.1484 	1
0.1491 	1
0.1498 	1
0.1505 	1
0.1512 	1
0.1519 	1
0.1526 	1
0.1533 	1
0.154 	1
0.1547 	1
0.1554 	1
0.1561 	1
0.1568 	1
0.1575 	1
0.1582 	1
0.1589 	1
0.1596 	1
0.1603 	1
0.161 	1
0.1617 	1
0.1624 	1
0.1631 	1
0.1638 	1
0.1645 	1
0.1652 	1
0.1659 	1
0.1666 	1
0.1673 	1
0.168 	1
0.1687 	1
0.1694 	1
0.1701 	1
0.1708 	1
0.1715 	1
0.1722 	1
0.1729 	1
0.1736 	1
0.1743 	1
0.175 	1
0.1757 	1
0.1764 	1
0.1771 	1
0.1778 	1
0.1785 	1
0.1792 	1
0.1799 	1
0.1806 	1
0.1813 	1
0.182 	1
0.1827 	1
0.1834 	1
0.1841 	1
0.1848 	1
0.1855 	1
0.1862 	1
0.1869 	1
0.1876 	1
0.1883 	1
0.189 	1
0.1897 	1
0.1904 	1
0.1911 	1
0.1918 	1
0.1925 	1
0.1932 	1
0.1939 	1
0.1946 	1
0.1953 	1
0.196 	1
0.1967 	1
0.1974 	1
0.1981 	1
0.1988 	1
0.1995 	1
0.2002 	1
0.2009 	1
0.2016 	1
0.2023 	1
0.203 	1
0.2037 	1
0.2044 	1
0.2051 	1
0.2058 	1
0.2065 	1
0.2072 	1
0.2079 	1
0.2086 	1
0.2093 	1
0.21 	1
0.2107 	1
0.2114 	1
0.2121 	1
0.2128 	1
0.2135 	1
0.2142 	1
0.2149 	1
0.2156 	1
0.2163 	1
0.217 	1
0.2177 	1
0.2184 	1
0.2191 	1
0.2198 	1
0.2205 	1
0.2212 	1
0.2219 	1
0.2226 	1
0.2233 	1
0.224 	1
0.2247 	1
0.2254 	1
0.2261 	1
0.2268 	0.999994
0.2275 	0.999978
0.2282 	0.999955
0.2289 	0.999931
0.2296 	0.9999
0.2303 	0.999876
0.231 	0.999859
0.2317 	0.999313
0.2324 	0.99817
0.2331 	0.996489
0.2338 	0.994749
0.2345 	0.992245
0.2352 	0.989898
0.2359 	0.987946
0.2366 	0.979508
0.2373 	0.96306
0.238 	0.941168
0.2387 	0.919277
0.2394 	0.885343
0.2401 	0.850885
0.2408 	0.818843
0.2415 	0.778178
0.2422 	0.721626
0.2429 	0.660711
0.2436 	0.599797
0.2443 	0.519911
0.245 	0.434851
0.2457 	0.349749
0.2464 	0.27119
0.2471 	0.216623
0.2478 	0.168367
0.2485 	0.120547
0.2492 	0.0923571
0.2499 	0.0750727
0.2506 	0.0556705
0.2513 	0.0364013
0.252 	0.0234503
0.2527 	0.0149088
0.2534 	0.00751595
0.2541 	0.00352484
0.2548 	0.00293562
0.2555 	0.00223638
0.2562 	0.00149314
0.2569 	0.000971685
0.2576 	0.000621492
0.2583 	0.000353783
0.259 	0.000171365
0.2597 	0.000142477
0.2604 	0.00011029
0.2611 	7.56295e-05
0.2618 	5.00252e-05
0.2625 	3.20827e-05
0.2632 	1.91356e-05
0.2639 	8.65795e-06
0.2646 	7.23512e-06
0.2653 	5.68385e-06
0.266 	3.96133e-06
0.2667 	2.60501e-06
0.2674 	1.64227e-06
0.2681 	1.00633e-06
0.2688 	4.11073e-07
0.2695 	3.44639e-07
0.2702 	2.74021e-07
0.2709 	1.92939e-07
0.2716 	1.25283e-07
0.2723 	7.66681e-08
0.273 	4.72857e-08
0.2737 	1.79034e-08
0.2744 	1.34359e-08
0.2751 	1.07966e-08
0.2758 	7.62553e-09
0.2765 	4.83173e-09
0.2772 	2.80151e-09
0.2779 	1.6915e-09
0.2786 	5.81496e-10
0.2793 	2.99798e-10
0.28 	2.44012e-10
0.2807 	1.72906e-10
0.2814 	1.06921e-10
0.2821 	5.97135e-11
0.2828 	3.43085e-11
0.2835 	1.02403e-11
0.2842 	1.47112e-12
0.2849 	1.20171e-12
0.2856 	8.71992e-13
0.2863 	5.40759e-13
0.287 	3.20572e-13
0.2877 	1.81234e-13
0.2884 	6.20605e-14
0.2891 	2.26447e-15
0.2898 	1.84734e-15
0.2905 	1.36847e-15
0.2912 	8.64898e-16
0.2919 	5.34047e-16
0.2926 	3.04082e-16
0.2933 	1.19541e-16
0.294 	8.54575e-19
0.2947 	7.07232e-19
0.2954 	5.36308e-19
0.2961 	3.47697e-19
0.2968 	2.11287e-19
0.2975 	1.18183e-19
0.2982 	5.22729e-20
0.2989 	4.68609e-22
0.2996 	3.88732e-22
0.3003 	3.00073e-22
0.301 	1.99706e-22
0.3017 	1.22353e-22
0.3024 	6.86519e-23
0.3031 	3.30788e-23
0.3038 	4.59145e-26
0.3045 	3.85636e-26
0.3052 	3.05153e-26
0.3059 	2.07234e-26
0.3066 	1.25924e-26
0.3073 	6.85851e-27
0.308 	3.54912e-27
0.3087 	2.39727e-28
0.3094 	2.84702e-30
0.3101 	2.30931e-30
0.3108 	1.59821e-30
0.3115 	9.69546e-31
0.3122 	5.11954e-31
0.3129 	2.80852e-31
0.3136 	4.9751e-32
0.3143 	2.01227e-34
0.315 	1.67402e-34
0.3157 	1.17886e-34
0.3164 	7.16682e-35
0.3171 	3.75458e-35
0.3178 	2.10794e-35
0.3185 	5.55862e-36
0.3192 	1.39565e-38
0.3199 	1.17496e-38
0.3206 	8.52776e-39
0.3213 	5.20884e-39
0.322 	2.82623e-39
0.3227 	1.53921e-39
0.3234 	5.13749e-40
0.3241 	9.38873e-43
0.3248 	7.99006e-43
0.3255 	5.97895e-43
0.3262 	3.72287e-43
0.3269 	2.06251e-43
0.3276 	1.08364e-43
0.3283 	4.24422e-44
0.329 	6.04566e-47
0.3297 	5.19483e-47
0.3304 	4.00827e-47
0.3311 	2.56991e-47
0.3318 	1.43942e-47
0.3325 	7.27564e-48
0.3332 	3.20342e-48
0.3339 	3.68417e-51
0.3346 	3.19266e-51
0.3353 	2.53961e-51
0.336 	1.6712e-51
0.3367 	9.48893e-52
0.3374 	4.61192e-52
0.3381 	2.22166e-52
0.3388 	2.11142e-55
0.3395 	1.84312e-55
0.3402 	1.5106e-55
0.3409 	1.01748e-55
0.3416 	5.86564e-56
0.3423 	2.74471e-56
0.343 	1.42022e-56
0.3437 	9.57396e-58
0.3444 	9.9715e-60
0.3451 	8.414e-60
0.3458 	5.78715e-60
0.3465 	3.38914e-60
0.3472 	1.52969e-60
0.3479 	8.39114e-61
0.3486 	1.48542e-61
0.3493 	5.05756e-64
0.35 	4.39039e-64
0.3507 	3.07712e-64
0.3514 	1.83041e-64
0.3521 	8.278e-65
0.3528 	4.59829e-65
0.3535 	1.21201e-65
0.3542 	2.41088e-68
0.3549 	2.10686e-68
0.3556 	1.53395e-68
0.3563 	9.26361e-69
0.357 	4.50644e-69
0.3577 	2.34775e-69
0.3584 	7.83355e-70
0.3591 	1.084e-72
0.3598 	9.53164e-73
0.3605 	7.1979e-73
0.3612 	4.454e-73
0.3619 	2.28026e-73
0.3626 	1.12255e-73
0.3633 	4.39553e-74
0.364 	4.61587e-77
0.3647 	4.08228e-77
0.3654 	3.19323e-77
0.3661 	2.03757e-77
0.3668 	1.07995e-77
0.3675 	5.05298e-78
0.3682 	2.22439e-78
0.3689 	1.86024e-81
0.3696 	1.61079e-81
0.3703 	1.28779e-81
0.371 	8.66725e-82
0.3717 	4.81817e-82
0.3724 	2.15245e-82
0.3731 	1.03664e-82
0.3738 	-3.09327e-84
0.3745 	-4.71536e-83
0.3752 	-6.60441e-83
0.3759 	-2.20097e-83
0.3766 	3.6344e-87
0.3773 	-3.54757e-87
0.378 	-7.72294e-87
0.3787 	-1.18983e-86
0.3794 	-1.69517e-83
0.3801 	-2.99821e-83
0.3808 	-1.1739e-83
0.3815 	-9.03144e-87
0.3822 	-3.51723e-87
0.3829 	-3.42625e-87
0.3836 	-3.33527e-87
0.3843 	-4.4644e-84
0.385 	-1.01422e-83
0.3857 	-4.46426e-84
0.3864 	-2.61986e-87
0.3871 	-8.53281e-88
0.3878 	-7.59531e-88
0.3885 	-7.31925e-88
0.3892 	-9.26656e-85
0.3899 	-2.36701e-84
0.3906 	-1.33816e-84
0.3913 	-6.21577e-88
0.392 	-2.2086e-88
0.3927 	-1.43744e-88
0.3934 	-1.3769e-88
0.3941 	-1.56489e-85
0.3948 	-4.69202e-85
0.3955 	-3.35178e-85
0.3962 	-2.24598e-86
0.3969 	-4.9638e-89
0.3976 	-2.40688e-89
0.3983 	-2.29573e-89
0.399 	-2.14301e-86
0.3997 	-8.13731e-86
0.4004 	-7.28093e-86
0.4011 	-1.28655e-86
0.4018 	-9.79189e-90
0.4025 	-3.63963e-90
0.4032 	-3.46139e-90
0.4039 	-2.22104e-87
0.4046 	-1.25707e-86
0.4053 	-1.40491e-86
0.406 	-3.69939e-87
0.4067 	-1.72005e-90
0.4074 	-5.00957e-91
0.4081 	-4.75428e-91
0.4088 	-1.16285e-88
0.4095 	-1.73807e-87
0.4102 	-2.43312e-87
0.4109 	-8.11319e-88
0.4116 	-2.71459e-91
0.4123 	-6.32939e-92
0.413 	-5.99926e-92
0.4137 	-5.66914e-92
0.4144 	-2.15988e-88
0.4151 	-3.8209e-88
0.4158 	-1.49546e-88
0.4165 	-3.88643e-92
0.4172 	-7.39276e-93
0.4179 	-7.00175e-93
0.4186 	-6.61074e-93
0.4193 	-2.41463e-89
0.42 	-5.48698e-89
0.4207 	-2.41461e-89
0.4214 	-5.08608e-93
0.4221 	-9.38633e-94
0.4228 	-7.62263e-94
0.4235 	-7.19318e-94
0.4242 	-2.42952e-90
0.4249 	-6.20771e-90
0.4256 	-3.50899e-90
0.4263 	-6.14945e-94
0.427 	-1.60335e-94
0.4277 	-7.73429e-95
0.4284 	-7.29788e-95
0.4291 	-2.16198e-91
0.4298 	-6.48456e-91
0.4305 	-4.63202e-91
0.4312 	-3.0943e-92
0.4319 	-2.2313e-95
0.4326 	-7.31929e-96
0.4333 	-6.90914e-96
0.434 	-1.64465e-92
0.4347 	-6.24786e-92
0.4354 	-5.59025e-92
0.4361 	-9.8704e-93
0.4368 	-2.6985e-96
0.4375 	-6.48756e-97
0.4382 	-6.12893e-97
0.4389 	-9.82354e-94
0.4396 	-5.56404e-93
0.4403 	-6.21857e-93
0.441 	-1.63688e-93
0.4417 	-2.92401e-97
0.4424 	-5.41776e-98
0.4431 	-5.12378e-98
0.4438 	-3.06698e-95
0.4445 	-4.59396e-94
0.4452 	-6.43135e-94
0.4459 	-2.1441e-94
0.4466 	-2.89405e-98
0.4473 	-4.28103e-99
0.448 	-4.05331e-99
0.4487 	-3.82559e-99
0.4494 	-3.52059e-95
0.4501 	-6.22845e-95
0.4508 	-2.43745e-95
0.4515 	-2.64856e-99
0.4522 	-3.2062e-100
0.4529 	-3.03905e-100
0.4536 	-2.87189e-100
0.4543 	-2.49317e-96
0.455 	-5.66596e-96
0.4557 	-2.49318e-96
0.4564 	-2.25781e-100
0.4571 	-2.81527e-101
0.4578 	-2.15477e-101
0.4585 	-2.0391e-101
0.4592 	-1.61431e-97
0.4599 	-4.12517e-97
0.4606 	-2.3317e-97
0.4613 	-1.79608e-101
0.462 	-3.89623e-102
0.4627 	-1.4431e-102
0.4634 	-1.36776e-102
0.4641 	-9.38952e-99
0.4648 	-2.8166e-98
0.4655 	-2.0119e-98
0.4662 	-1.34252e-99
0.4669 	-3.89782e-103
0.4676 	-9.14084e-104
0.4683 	-8.67827e-104
0.469 	-4.74415e-100
0.4697 	-1.80256e-99
0.4704 	-1.61283e-99
0.4711 	-2.84686e-100
0.4718 	-3.29552e-104
0.4725 	-5.49383e-105
0.4732 	-5.22538e-105
0.4739 	-1.90984e-101
0.4746 	-1.08202e-100
0.4753 	-1.20932e-100
0.476 	-3.18279e-101
0.4767 	-2.48338e-105
0.4774 	-3.142e-106
0.4781 	-2.99404e-106
0.4788 	-4.06658e-103
0.4795 	-6.09618e-102
0.4802 	-8.53455e-102
0.4809 	-2.84505e-102
0.4816 	-1.71075e-106
0.4823 	-1.71338e-107
0.483 	-1.63564e-107
0.4837 	-1.5579e-107
0.4844 	-3.21801e-103
0.4851 	-5.69329e-103
0.4858 	-2.22791e-103
0.4865 	-1.09275e-107
0.4872 	-8.92054e-109
0.4879 	-8.53115e-109
0.4886 	-8.14176e-109
0.4893 	-1.58441e-104
0.49 	-3.60084e-104
0.4907 	-1.58442e-104
0.4914 	-6.52961e-109
0.4921 	-5.84223e-110
0.4928 	-4.24583e-110
0.4935 	-4.05985e-110
0.4942 	-7.20836e-106
0.4949 	-1.84208e-105
0.4956 	-1.0412e-105
0.4963 	-3.66554e-110
0.497 	-7.01143e-111
0.4977 	-2.01511e-111
0.4984 	-1.93053e-111
0.4991 	-2.97805e-107
0.4998 	-8.93381e-107
0.5005 	-6.38135e-107
0.5012 	-4.25613e-108
0.5019 	-5.28735e-112
0.5026 	-9.11846e-113
0.5033 	-8.75297e-113
0.504 	-1.07886e-108
0.5047 	-4.09944e-108
0.5054 	-3.66794e-108
0.5061 	-6.47359e-109
0.5068 	-3.28582e-113
0.5075 	-3.93398e-114
0.5082 	-3.78406e-114
0.5089 	-3.13488e-110
0.5096 	-1.77628e-109
0.5103 	-1.98526e-109
0.511 	-5.22466e-110
0.5117 	-1.80636e-114
0.5124 	-1.61859e-115
0.5131 	-1.56017e-115
0.5138 	-4.83831e-112
0.5145 	-7.25566e-111
0.5152 	-1.01579e-110
0.5159 	-3.38607e-111
0.5166 	-9.04692e-116
0.5173 	-6.3495e-117
0.518 	-6.13315e-117
0.5187 	-5.91679e-117
0.5194 	-2.78219e-112
0.5201 	-4.9223e-112
0.5208 	-1.92616e-112
0.5215 	-4.18907e-117
0.5222 	-2.37749e-118
0.5229 	-2.30136e-118
0.5236 	-2.22522e-118
0.5243 	-9.96509e-114
0.525 	-2.26477e-113
0.5257 	-9.96513e-114
0.5264 	-1.81099e-118
0.5271 	-1.2006e-119
0.5278 	-8.24465e-120
0.5285 	-7.98944e-120
0.5292 	-3.30562e-115
0.5299 	-8.44759e-115
0.5306 	-4.77476e-115
0.5313 	-7.3509e-120
0.532 	-1.27997e-120
0.5327 	-2.81983e-121
0.5334 	-2.73841e-121
0.5341 	-9.99509e-117
0.5348 	-2.99848e-116
0.5355 	-2.14178e-116
0.5362 	-1.42815e-117
0.5369 	-7.30283e-122
0.5376 	-9.20903e-123
0.5383 	-8.96162e-123
0.539 	-2.66409e-118
0.5397 	-1.01234e-117
0.5404 	-9.05776e-118
0.5411 	-1.59852e-118
0.5418 	-3.34694e-123
0.5425 	-2.87345e-124
0.5432 	-2.8019e-124
0.5439 	-5.73205e-120
0.5446 	-3.24807e-119
0.5453 	-3.63019e-119
0.546 	-9.55339e-120
0.5467 	-1.34684e-124
0.5474 	-8.57691e-126
0.5481 	-8.37991e-126
0.5488 	-6.59836e-122
0.5495 	-9.89673e-121
0.5502 	-1.38554e-120
0.5509 	-4.61854e-121
0.5516 	-4.93078e-126
0.5523 	-2.44919e-127
0.553 	-2.39757e-127
0.5537 	-2.34596e-127
0.5544 	-2.85285e-122
0.5551 	-5.04735e-122
0.5558 	-1.97507e-122
0.5565 	-1.67044e-127
0.5572 	-6.68604e-129
0.5579 	-6.55754e-129
0.5586 	-6.42903e-129
0.5593 	-7.74114e-124
0.56 	-1.75934e-123
0.5607 	-7.74116e-124
0.5614 	-5.28396e-129
0.5621 	-2.67815e-130
0.5628 	-1.71271e-130
0.5635 	-1.6826e-130
0.5642 	-1.96086e-125
0.5649 	-5.01107e-125
0.5656 	-2.83235e-125
0.5663 	-1.56863e-130
0.567 	-2.54916e-131
0.5677 	-4.24753e-132
0.5684 	-4.18156e-132
0.5691 	-4.56461e-127
0.5698 	-1.36938e-126
0.5705 	-9.7813e-127
0.5712 	-6.52143e-128
0.5719 	-1.09398e-132
0.5726 	-9.94125e-134
0.5733 	-9.809e-134
0.574 	-9.44667e-129
0.5747 	-3.58972e-128
0.5754 	-3.21186e-128
0.5761 	-5.66812e-129
0.5768 	-3.65132e-134
0.5775 	-2.17896e-135
0.5782 	-2.15486e-135
0.5789 	-1.59187e-130
0.5796 	-9.02057e-130
0.5803 	-1.00818e-129
0.581 	-2.65314e-130
0.5817 	-1.04159e-135
0.5824 	-4.35677e-137
0.5831 	-4.3168e-137
0.5838 	-1.44658e-132
0.5845 	-2.16987e-131
0.5852 	-3.03782e-131
0.5859 	-1.01261e-131
0.5866 	-2.5696e-137
0.5873 	-7.85158e-139
0.588 	-7.79153e-139
0.5887 	-7.73149e-139
0.5894 	-4.98797e-133
0.5901 	-8.82487e-133
0.5908 	-3.45322e-133
0.5915 	-5.51004e-139
0.5922 	-1.2819e-140
0.5929 	-1.26789e-140
0.5936 	-1.25389e-140
0.5943 	-1.08962e-134
0.595 	-2.47641e-134
0.5957 	-1.08962e-134
0.5964 	-1.03244e-140
0.5971 	-3.87643e-142
0.5978 	-2.10341e-142
0.5985 	-2.06416e-142
0.5992 	-2.24221e-136
0.5999 	-5.7301e-136
0.6006 	-3.23876e-136
0.6013 	-1.92019e-142
0.602 	-3.13547e-143
0.6027 	-5.52324e-144
0.6034 	-5.41449e-144
0.6041 	-4.27865e-138
0.6048 	-1.2836e-137
0.6055 	-9.16856e-138
0.6062 	-6.11255e-139
0.6069 	-1.41901e-144
0.6076 	-1.445e-145
0.6083 	-1.41535e-145
0.609 	-7.32432e-140
0.6097 	-2.78325e-139
0.6104 	-2.49027e-139
0.6111 	-4.39464e-140
0.6118 	-5.25684e-146
0.6125 	-3.75937e-147
0.6132 	-3.67997e-147
0.6139 	-1.03018e-141
0.6146 	-5.83769e-141
0.6153 	-6.52448e-141
0.616 	-1.71698e-141
0.6167 	-1.76634e-147
0.6174 	-9.71788e-149
0.6181 	-9.50944e-149
0.6188 	-7.88427e-144
0.6195 	-1.18265e-142
0.6202 	-1.65571e-142
0.6209 	-5.51905e-143
0.6216 	-5.59062e-149
0.6223 	-2.49181e-150
0.623 	-2.43823e-150
0.6237 	-2.38464e-150
0.6244 	-2.30776e-144
0.6251 	-4.08297e-144
0.6258 	-1.59769e-144
0.6265 	-1.69534e-150
0.6272 	-6.32782e-152
0.6279 	-6.19297e-152
0.6286 	-6.05811e-152
0.6293 	-4.31629e-146
0.63 	-9.80975e-146
0.6307 	-4.3163e-146
0.6314 	-4.96958e-152
0.6321 	-2.40899e-153
0.6328 	-1.56789e-153
0.6335 	-1.53466e-153
0.6342 	-7.67079e-148
0.6349 	-1.96031e-147
0.6356 	-1.108e-147
0.6363 	-1.42642e-153
0.637 	-2.33842e-154
0.6377 	-4.23976e-155
0.6384 	-4.15954e-155
0.6391 	-1.27455e-149
0.6398 	-3.82364e-149
0.6405 	-2.73118e-149
0.6412 	-1.82085e-150
0.6419 	-1.11128e-155
0.6426 	-1.37499e-156
0.6433 	-1.356e-156
0.644 	-1.91428e-151
0.6447 	-7.27423e-151
0.6454 	-6.50852e-151
0.6461 	-1.14858e-151
0.6468 	-5.12468e-157
0.6475 	-4.41198e-158
0.6482 	-4.36739e-158
0.6489 	-2.37915e-153
0.6496 	-1.34817e-152
0.6503 	-1.50678e-152
0.651 	-3.96524e-153
0.6517 	-2.134e-158
0.6524 	-1.34775e-159
0.6531 	-1.33652e-159
0.6538 	-1.61983e-155
0.6545 	-2.42959e-154
0.6552 	-3.40142e-154
0.6559 	-1.13382e-154
0.6566 	-8.0098e-160
0.6573 	-3.86453e-161
0.658 	-3.8346e-161
0.6587 	-3.80466e-161
0.6594 	-4.23957e-156
0.6601 	-7.50076e-156
0.6608 	-2.93511e-156
0.6615 	-2.72207e-161
0.6622 	-1.02705e-162
0.6629 	-1.01926e-162
0.6636 	-1.01147e-162
0.6643 	-7.1226e-158
0.665 	-1.61876e-157
0.6657 	-7.1226e-158
0.6664 	-8.36351e-163
0.6671 	-3.94158e-164
0.6678 	-2.53318e-164
0.6685 	-2.51377e-164
0.6692 	-1.1412e-159
0.6699 	-2.91636e-159
0.6706 	-1.64839e-159
0.6713 	-2.35893e-164
0.672 	-3.77386e-165
0.6727 	-5.92117e-166
0.6734 	-5.87505e-166
0.6741 	-1.71438e-161
0.6748 	-5.14303e-161
0.6755 	-3.67361e-161
0.6762 	-2.44963e-162
0.6769 	-1.53627e-166
0.6776 	-1.30498e-167
0.6783 	-1.2946e-167
0.679 	-2.33248e-163
0.6797 	-8.86309e-163
0.6804 	-7.93014e-163
0.6811 	-1.39954e-163
0.6818 	-4.82799e-168
0.6825 	-2.71234e-169
0.6832 	-2.69019e-169
0.6839 	-2.62795e-165
0.6846 	-1.48905e-164
0.6853 	-1.66423e-164
0.686 	-4.37975e-165
0.6867 	-1.30294e-169
0.6874 	-5.29397e-171
0.6881 	-5.24907e-171
0.6888 	-1.62094e-167
0.6895 	-2.4307e-166
0.6902 	-3.40296e-166
0.6909 	-1.13435e-166
0.6916 	-3.12623e-171
0.6923 	-9.6211e-173
0.693 	-9.5349e-173
0.6937 	-9.4487e-173
0.6944 	-3.82449e-168
0.6951 	-6.76633e-168
0.6958 	-2.64775e-168
0.6965 	-6.74119e-173
0.6972 	-1.75532e-174
0.6979 	-1.73983e-174
0.6986 	-1.72435e-174
0.6993 	-1.71968e-174
0.7 	-1.71795e-174
