0 	1
0.0007 	1
0.0014 	1
0.0021 	1
0.0028 	1
0.0035 	1
0.0042 	1
0.0049 	1
0.0056 	1
0.0063 	1
0.007 	1
0.0077 	1
0.0084 	1
0.0091 	1
0.0098 	1
0.0105 	1
0.0112 	1
0.0119 	1
0.0126 	1
0.0133 	1
0.014 	1
0.0147 	1
0.0154 	1
0.0161 	1
0.0168 	1
0.0175 	1
0.0182 	1
0.0189 	1
0.0196 	1
0.0203 	1
0.021 	1
0.0217 	1
0.0224 	1
0.0231 	1
0.0238 	1
0.0245 	1
0.0252 	1
0.0259 	1
0.0266 	1
0.0273 	1
0.028 	1
0.0287 	1
0.0294 	1
0.0301 	1
0.0308 	1
0.0315 	1
0.0322 	1
0.0329 	1
0.0336 	1
0.0343 	1
0.035 	1
0.0357 	1
0.0364 	1
0.0371 	1
0.0378 	1
0.0385 	1
0.0392 	1
0.0399 	1
0.0406 	1
0.0413 	1
0.042 	1
0.0427 	1
0.0434 	1
0.0441 	1
0.0448 	1
0.0455 	1
0.0462 	1
0.0469 	1
0.0476 	1
0.0483 	1
0.049 	1
0.0497 	1
0.0504 	1
0.0511 	1
0.0518 	1
0.0525 	1
0.0532 	1
0.0539 	1
0.0546 	1
0.0553 	1
0.056 	1
0.0567 	1
0.0574 	1
0.0581 	1
0.0588 	1
0.0595 	1
0.0602 	1
0.0609 	1
0.0616 	1
0.0623 	1
0.063 	1
0.0637 	1
0.0644 	1
0.0651 	1
0.0658 	1
0.0665 	1
0.0672 	1
0.0679 	1
0.0686 	1
0.0693 	1
0.07 	1
0.0707 	1
0.0714 	1
0.0721 	1
0.0728 	1
0.0735 	1
0.0742 	1
0.0749 	1
0.0756 	1
0.0763 	1
0.077 	1
0.0777 	1
0.0784 	1
0.0791 	1
0.0798 	1
0.0805 	1
0.0812 	1
0.0819 	1
0.0826 	1
0.0833 	1
0.084 	1
0.0847 	1
0.0854 	1
0.0861 	1
0.0868 	1
0.0875 	1
0.0882 	1
0.0889 	1
0.0896 	1
0.0903 	1
0.091 	1
0.0917 	1
0.0924 	1
0.0931 	1
0.0938 	1
0.0945 	1
0.0952 	1
0.0959 	1
0.0966 	1
0.0973 	1
0.098 	1
0.0987 	1
0.0994 	1
0.1001 	1
0.1008 	1
0.1015 	1
0.1022 	1
0.1029 	1
0.1036 	1
0.1043 	1
0.105 	1
0.1057 	1
0.1064 	1
0.1071 	1
0.1078 	1
0.1085 	1
0.1092 	1
0.1099 	1
0.1106 	1
0.1113 	1
0.112 	1
0.1127 	1
0.1134 	1
0.1141 	1
0.1148 	1
0.1155 	1
0.1162 	1
0.1169 	1
0.1176 	1
0.1183 	1
0.119 	1
0.1197 	1
0.1204 	1
0.1211 	1
0.1218 	1
0.1225 	1
0.1232 	1
0.1239 	1
0.1246 	1
0.1253 	1
0.126 	1
0.1267 	1
0.1274 	1
0.1281 	1
0.1288 	1
0.1295 	1
0.1302 	1
0.1309 	1
0.1316 	1
0.1323 	1
0.133 	1
0.1337 	1
0.1344 	1
0.1351 	1
0.1358 	1
0.1365 	1
0.1372 	1
0.1379 	1
0.1386 	1
0.1393 	1
0.14 	1
0.1407 	1
0.1414 	1
0.1421 	1
0.1428 	1
0.1435 	1
0.1442 	1
0.1449 	1
0.1456 	1
0.1463 	1
0.147 	1
0.1477 	1
0.1484 	1
0.1491 	1
0.1498 	1
0.1505 	1
0.1512 	1
0.1519 	1
0.1526 	1
0.1533 	1
0.154 	1
0.1547 	1
0.1554 	1
0.1561 	1
0.1568 	1
0.1575 	1
0.1582 	1
0.1589 	1
0.1596 	1
0.1603 	1
0.161 	1
0.1617 	1
0.1624 	1
0.1631 	1
0.1638 	1
0.1645 	1
0.1652 	1
0.1659 	1
0.1666 	1
0.1673 	1
0.168 	1
0.1687 	1
0.1694 	1
0.1701 	1
0.1708 	1
0.1715 	1
0.1722 	1
0.1729 	1
0.1736 	1
0.1743 	1
0.175 	1
0.1757 	1
0.1764 	1
0.1771 	1
0.1778 	1
0.1785 	1
0.1792 	1
0.1799 	1
0.1806 	1
0.1813 	1
0.182 	1
0.1827 	1
0.1834 	1
0.1841 	1
0.1848 	1
0.1855 	1
0.1862 	1
0.1869 	1
0.1876 	1
0.1883 	1
0.189 	1
0.1897 	1
0.1904 	1
0.1911 	1
0.1918 	1
0.1925 	1
0.1932 	1
0.1939 	1
0.1946 	1
0.1953 	1
0.196 	1
0.1967 	1
0.1974 	1
0.1981 	1
0.1988 	1
0.1995 	1
0.2002 	1
0.2009 	1
0.2016 	1
0.2023 	1
0.203 	1
0.2037 	1
0.2044 	1
0.2051 	1
0.2058 	1
0.2065 	1
0.2072 	1
0.2079 	1
0.2086 	1
0.2093 	1
0.21 	1
0.2107 	1
0.2114 	1
0.2121 	1
0.2128 	1
0.2135 	1
0.2142 	1
0.2149 	1
0.2156 	1
0.2163 	1
0.217 	1
0.2177 	1
0.2184 	1
0.2191 	1
0.2198 	1
0.2205 	1
0.2212 	1
0.2219 	1
0.2226 	1
0.2233 	1
0.224 	1
0.2247 	1
0.2254 	1
0.2261 	1
0.2268 	0.999987
0.2275 	0.999986
0.2282 	0.999986
0.2289 	0.99998
0.2296 	0.999956
0.2303 	0.999951
0.231 	0.999972
0.2317 	0.999544
0.2324 	0.999512
0.2331 	0.999481
0.2338 	0.99939
0.2345 	0.998538
0.2352 	0.998103
0.2359 	0.998709
0.2366 	0.99428
0.2373 	0.993057
0.238 	0.992175
0.2387 	0.991294
0.2394 	0.981059
0.2401 	0.972305
0.2408 	0.976749
0.2415 	0.966555
0.2422 	0.951669
0.2429 	0.941605
0.2436 	0.931541
0.2443 	0.889272
0.245 	0.838219
0.2457 	0.822566
0.2464 	0.798802
0.2471 	0.756146
0.2478 	0.7187
0.2485 	0.681254
0.2492 	0.61948
0.2499 	0.544191
0.2506 	0.465329
0.2513 	0.389251
0.252 	0.345787
0.2527 	0.292415
0.2534 	0.239042
0.2541 	0.209321
0.2548 	0.203252
0.2555 	0.171629
0.2562 	0.129785
0.2569 	0.110832
0.2576 	0.0795991
0.2583 	0.0483658
0.259 	0.0295772
0.2597 	0.0331897
0.2604 	0.0305214
0.2611 	0.0231425
0.2618 	0.0196763
0.2625 	0.0131563
0.2632 	0.00663619
0.2639 	0.0015908
0.2646 	0.00195287
0.2653 	0.00196543
0.266 	0.001512
0.2667 	0.00129797
0.2674 	0.000864488
0.2681 	0.000431008
0.2688 	2.90799e-05
0.2695 	3.73891e-05
0.2702 	4.07434e-05
0.2709 	3.17104e-05
0.2716 	2.71486e-05
0.2723 	1.85834e-05
0.273 	9.69559e-06
0.2737 	8.07816e-07
0.2744 	2.23197e-07
0.2751 	2.61618e-07
0.2758 	2.05572e-07
0.2765 	1.6946e-07
0.2772 	1.23686e-07
0.2779 	6.79771e-08
0.2786 	1.22687e-08
0.2793 	4.12248e-10
0.28 	5.16009e-10
0.2807 	4.1205e-10
0.2814 	3.30364e-10
0.2821 	2.59799e-10
0.2828 	1.5581e-10
0.2835 	5.18211e-11
0.2842 	1.46501e-11
0.2849 	1.46015e-11
0.2856 	1.4925e-11
0.2863 	1.52632e-11
0.287 	1.51433e-11
0.2877 	1.51596e-11
0.2884 	1.51759e-11
0.2891 	1.48608e-11
0.2898 	1.42143e-11
0.2905 	1.39926e-11
0.2912 	1.39409e-11
0.2919 	1.34929e-11
0.2926 	1.31546e-11
0.2933 	1.28162e-11
0.294 	1.22885e-11
0.2947 	1.14199e-11
0.2954 	1.0649e-11
0.2961 	9.9514e-12
0.2968 	9.33308e-12
0.2975 	8.68784e-12
0.2982 	8.04261e-12
0.2989 	7.42374e-12
0.2996 	6.90151e-12
0.3003 	6.24158e-12
0.301 	5.39802e-12
0.3017 	4.8533e-12
0.3024 	4.23412e-12
0.3031 	3.61495e-12
0.3038 	3.03244e-12
0.3045 	2.92676e-12
0.3052 	2.70932e-12
0.3059 	2.21248e-12
0.3066 	1.90743e-12
0.3073 	1.55728e-12
0.308 	1.19894e-12
0.3087 	8.40606e-13
0.3094 	8.38296e-13
0.3101 	8.35553e-13
0.3108 	6.65859e-13
0.3115 	5.48325e-13
0.3122 	4.36591e-13
0.3129 	3.0607e-13
0.3136 	1.75548e-13
0.3143 	1.59749e-13
0.315 	1.75239e-13
0.3157 	1.39786e-13
0.3164 	1.1124e-13
0.3171 	8.98944e-14
0.3178 	6.00925e-14
0.3185 	3.02907e-14
0.3192 	2.12038e-14
0.3199 	2.36256e-14
0.3206 	1.99726e-14
0.3213 	1.56102e-14
0.322 	1.31775e-14
0.3227 	9.02932e-15
0.3234 	4.8811e-15
0.3241 	2.85331e-15
0.3248 	2.94603e-15
0.3255 	2.60019e-15
0.3262 	2.07893e-15
0.3269 	1.81721e-15
0.3276 	1.37037e-15
0.3283 	9.23539e-16
0.329 	6.31111e-16
0.3297 	6.16623e-16
0.3304 	5.47553e-16
0.3311 	4.37547e-16
0.3318 	3.8077e-16
0.3325 	2.96353e-16
0.3332 	2.11936e-16
0.3339 	1.46354e-16
0.3346 	1.49837e-16
0.3353 	1.38549e-16
0.336 	1.07567e-16
0.3367 	9.17182e-17
0.3374 	6.81052e-17
0.3381 	4.44923e-17
0.3388 	2.28048e-17
0.3395 	2.61515e-17
0.3402 	2.68225e-17
0.3409 	2.08045e-17
0.3416 	1.76182e-17
0.3423 	1.26072e-17
0.343 	7.45223e-18
0.3437 	2.29729e-18
0.3444 	2.40168e-18
0.3451 	2.75355e-18
0.3458 	2.16261e-18
0.3465 	1.7786e-18
0.3472 	1.31133e-18
0.3479 	7.49164e-19
0.3486 	1.87002e-19
0.3493 	8.01277e-20
0.35 	9.74295e-20
0.3507 	7.75238e-20
0.3514 	6.17492e-20
0.3521 	4.82289e-20
0.3528 	2.87885e-20
0.3535 	9.3481e-21
0.3542 	2.30355e-21
0.3549 	2.14584e-21
0.3556 	1.80531e-21
0.3563 	1.45159e-21
0.357 	1.22124e-21
0.3577 	9.05657e-22
0.3584 	5.9007e-22
0.3591 	3.95984e-22
0.3598 	3.23404e-22
0.3605 	2.596e-22
0.3612 	1.99306e-22
0.3619 	1.65847e-22
0.3626 	1.23196e-22
0.3633 	8.05457e-23
0.364 	5.13444e-23
0.3647 	4.63524e-23
0.3654 	3.86314e-23
0.3661 	2.88638e-23
0.3668 	2.378e-23
0.3675 	1.63939e-23
0.3682 	9.00792e-24
0.3689 	3.27985e-24
0.3696 	3.63121e-24
0.3703 	3.47995e-24
0.371 	2.65852e-24
0.3717 	2.24756e-24
0.3724 	1.50888e-24
0.3731 	7.70197e-25
0.3738 	8.5909e-26
0.3745 	1.08814e-25
0.3752 	1.17712e-25
0.3759 	9.15963e-26
0.3766 	7.83355e-26
0.3773 	5.34578e-26
0.378 	2.79162e-26
0.3787 	2.37469e-27
0.3794 	7.11963e-28
0.3801 	8.35886e-28
0.3808 	6.57316e-28
0.3815 	5.42331e-28
0.3822 	3.94383e-28
0.3829 	2.16509e-28
0.3836 	3.86351e-29
0.3843 	6.46908e-31
0.385 	8.1134e-31
0.3857 	6.43156e-31
0.3864 	5.10898e-31
0.3871 	3.95255e-31
0.3878 	2.27632e-31
0.3885 	6.00098e-32
0.3892 	1.60711e-34
0.3899 	1.88e-34
0.3906 	1.57211e-34
0.3913 	1.19495e-34
0.392 	9.76593e-35
0.3927 	5.9311e-35
0.3934 	2.09626e-35
0.3941 	1.89957e-36
0.3948 	2.12248e-36
0.3955 	1.89056e-36
0.3962 	1.47672e-36
0.3969 	1.29546e-36
0.3976 	9.60684e-37
0.3983 	6.25904e-37
0.399 	4.28062e-37
0.3997 	4.76715e-37
0.4004 	4.51833e-37
0.4011 	3.718e-37
0.4018 	3.38759e-37
0.4025 	2.91135e-37
0.4032 	2.4351e-37
0.4039 	2.11671e-37
0.4046 	2.37713e-37
0.4053 	2.34977e-37
0.406 	1.93869e-37
0.4067 	1.74718e-37
0.4074 	1.51862e-37
0.4081 	1.29007e-37
0.4088 	1.08855e-37
0.4095 	1.23866e-37
0.4102 	1.27712e-37
0.4109 	1.03646e-37
0.4116 	9.07385e-38
0.4123 	7.61866e-38
0.413 	6.13362e-38
0.4137 	4.64859e-38
0.4144 	5.2395e-38
0.4151 	5.71773e-38
0.4158 	4.56168e-38
0.4165 	3.79546e-38
0.4172 	3.1015e-38
0.4179 	2.28305e-38
0.4186 	1.4646e-38
0.4193 	1.50487e-38
0.42 	1.77935e-38
0.4207 	1.41218e-38
0.4214 	1.12097e-38
0.4221 	9.10458e-39
0.4228 	6.12135e-39
0.4235 	3.13811e-39
0.4242 	2.43513e-39
0.4249 	2.999e-39
0.4256 	2.53074e-39
0.4263 	1.9355e-39
0.427 	1.60992e-39
0.4277 	1.02614e-39
0.4284 	4.42372e-40
0.4291 	1.73941e-40
0.4298 	2.20862e-40
0.4305 	1.996e-40
0.4312 	1.51065e-40
0.4319 	1.2825e-40
0.4326 	8.10688e-41
0.4333 	3.38875e-41
0.434 	3.96918e-42
0.4347 	5.12533e-42
0.4354 	4.95658e-42
0.4361 	3.79414e-42
0.4368 	3.23794e-42
0.4375 	2.08273e-42
0.4382 	9.27511e-43
0.4389 	2.12247e-44
0.4396 	2.77192e-44
0.4403 	2.86457e-44
0.441 	2.21484e-44
0.4417 	1.90285e-44
0.4424 	1.25383e-44
0.4431 	6.04811e-45
0.4438 	2.19522e-47
0.4445 	2.89805e-47
0.4452 	3.19928e-47
0.4459 	2.49651e-47
0.4466 	2.14516e-47
0.4473 	1.45596e-47
0.448 	7.53297e-48
0.4487 	5.0638e-49
0.4494 	5.76445e-51
0.4501 	6.79873e-51
0.4508 	5.35089e-51
0.4515 	4.42018e-51
0.4522 	3.20625e-51
0.4529 	1.7585e-51
0.4536 	3.10738e-52
0.4543 	6.18443e-55
0.455 	7.79537e-55
0.4557 	6.18447e-55
0.4564 	4.91879e-55
0.4571 	3.79746e-55
0.4578 	2.18668e-55
0.4585 	5.75893e-56
0.4592 	7.24779e-59
0.4599 	9.20818e-59
0.4606 	7.80778e-59
0.4613 	5.9873e-59
0.462 	4.90168e-59
0.4627 	2.94131e-59
0.4634 	9.80938e-60
0.4641 	8.56747e-63
0.4648 	1.09773e-62
0.4655 	9.94424e-63
0.4662 	7.53398e-63
0.4669 	6.37026e-63
0.4676 	3.96023e-63
0.4683 	1.5502e-63
0.469 	9.78381e-67
0.4697 	1.26499e-66
0.4704 	1.224e-66
0.4711 	9.37288e-67
0.4718 	7.98869e-67
0.4725 	5.12787e-67
0.4732 	2.26704e-67
0.4739 	2.05598e-69
0.4746 	2.68014e-69
0.4753 	2.76804e-69
0.476 	2.14096e-69
0.4767 	1.8703e-69
0.4774 	1.50355e-69
0.4781 	1.13679e-69
0.4788 	8.14759e-70
0.4795 	1.07425e-69
0.4802 	1.18529e-69
0.4809 	9.25197e-70
0.4816 	7.95112e-70
0.4823 	6.80114e-70
0.483 	5.63293e-70
0.4837 	4.46472e-70
0.4844 	5.70983e-70
0.4851 	6.73159e-70
0.4858 	5.2993e-70
0.4865 	4.3785e-70
0.4872 	3.76973e-70
0.4879 	3.04677e-70
0.4886 	2.32382e-70
0.4893 	2.7259e-70
0.49 	3.43482e-70
0.4907 	2.72561e-70
0.4914 	2.16837e-70
0.4921 	1.8774e-70
0.4928 	1.46154e-70
0.4935 	1.04568e-70
0.4942 	1.08571e-70
0.4949 	1.37901e-70
0.4956 	1.16945e-70
0.4963 	8.97048e-71
0.497 	7.87124e-71
0.4977 	5.89871e-71
0.4984 	3.92619e-71
0.4991 	3.42038e-71
0.4998 	4.38136e-71
0.5005 	3.96938e-71
0.5012 	3.00822e-71
0.5019 	2.62974e-71
0.5026 	1.88297e-71
0.5033 	1.1362e-71
0.504 	7.32676e-72
0.5047 	9.47021e-72
0.5054 	9.16379e-72
0.5061 	7.01996e-72
0.5068 	6.04322e-72
0.5075 	4.14475e-72
0.5082 	2.24628e-72
0.5089 	8.06849e-73
0.5096 	1.05067e-72
0.5103 	1.08549e-72
0.511 	8.41641e-73
0.5117 	7.23684e-73
0.5124 	4.86618e-73
0.5131 	2.49552e-73
0.5138 	2.96037e-74
0.5145 	3.2213e-74
0.5152 	3.32838e-74
0.5159 	3.05084e-74
0.5166 	2.90448e-74
0.5173 	1.9377e-74
0.518 	9.5913e-75
0.5187 	-1.94394e-76
0.5194 	-1.71631e-74
0.5201 	-2.97579e-74
0.5208 	-1.2794e-74
0.5215 	-2.0399e-75
0.5222 	-2.68138e-75
0.5229 	-3.36277e-75
0.5236 	-4.04416e-75
0.5243 	-3.66827e-74
0.525 	-7.80374e-74
0.5257 	-3.82256e-74
0.5264 	-7.15648e-75
0.5271 	-8.60347e-75
0.5278 	-1.02451e-74
0.5285 	-1.18868e-74
0.5292 	-6.97839e-74
0.5299 	-1.58935e-73
0.5306 	-9.82859e-74
0.5313 	-1.89272e-74
0.532 	-2.18154e-74
0.5327 	-2.54161e-74
0.5334 	-2.90167e-74
0.5341 	-1.18988e-73
0.5348 	-2.95332e-73
0.5355 	-2.24727e-73
0.5362 	-5.53413e-74
0.5369 	-4.79448e-74
0.5376 	-5.48788e-74
0.5383 	-6.18128e-74
0.539 	-1.81814e-73
0.5397 	-5.05346e-73
0.5404 	-4.661e-73
0.5411 	-1.54772e-73
0.5418 	-9.42985e-74
0.5425 	-1.0632e-73
0.5432 	-1.18341e-73
0.5439 	-2.4684e-73
0.5446 	-8.02448e-73
0.5453 	-8.90193e-73
0.546 	-3.54123e-73
0.5467 	-1.69589e-73
0.5474 	-1.88707e-73
0.5481 	-2.07824e-73
0.5488 	-2.89604e-73
0.5495 	-1.1861e-72
0.5502 	-1.57856e-72
0.5509 	-7.10889e-73
0.5516 	-2.82949e-73
0.5523 	-3.10839e-73
0.553 	-3.38876e-73
0.5537 	-3.66914e-73
0.5544 	-1.62847e-72
0.5551 	-2.60294e-72
0.5558 	-1.28544e-72
0.5565 	-4.43724e-73
0.5572 	-4.77849e-73
0.5579 	-5.15453e-73
0.5586 	-5.53056e-73
0.5593 	-2.06492e-72
0.56 	-3.97887e-72
0.5607 	-2.1122e-72
0.5614 	-6.48984e-73
0.5621 	-6.85669e-73
0.5628 	-7.30938e-73
0.5635 	-7.76206e-73
0.5642 	-2.40175e-72
0.5649 	-4.90526e-72
0.5656 	-3.15987e-72
0.5663 	-8.82683e-73
0.567 	-9.16042e-73
0.5677 	-9.63646e-73
0.5684 	-1.01125e-72
0.5691 	-2.54683e-72
0.5698 	-5.57044e-72
0.5705 	-4.30592e-72
0.5712 	-1.32615e-72
0.5719 	-1.13647e-72
0.5726 	-1.17832e-72
0.5733 	-1.22016e-72
0.574 	-2.44983e-72
0.5747 	-5.81764e-72
0.5754 	-5.35275e-72
0.5761 	-2.01331e-72
0.5768 	-1.3077e-72
0.5775 	-1.33534e-72
0.5782 	-1.36298e-72
0.5789 	-2.12701e-72
0.5796 	-5.59129e-72
0.5803 	-6.08906e-72
0.581 	-2.63149e-72
0.5817 	-1.3963e-72
0.5824 	-1.404e-72
0.5831 	-1.4117e-72
0.5838 	-1.65465e-72
0.5845 	-4.95616e-72
0.5852 	-6.36661e-72
0.5859 	-3.04938e-72
0.5866 	-1.38623e-72
0.5873 	-1.37304e-72
0.588 	-1.35984e-72
0.5887 	-1.34663e-72
0.5894 	-4.06424e-72
0.5901 	-6.15066e-72
0.5908 	-3.18941e-72
0.5915 	-1.28103e-72
0.5922 	-1.25325e-72
0.5929 	-1.22294e-72
0.5936 	-1.19262e-72
0.5943 	-3.09343e-72
0.595 	-5.52093e-72
0.5957 	-3.04976e-72
0.5964 	-1.10496e-72
0.5971 	-1.07185e-72
0.5978 	-1.03123e-72
0.5985 	-9.90599e-73
0.5992 	-2.19194e-72
0.5999 	-4.0833e-72
0.6006 	-2.69309e-72
0.6013 	-8.93315e-73
0.602 	-8.62489e-73
0.6027 	-8.18896e-73
0.6034 	-7.75304e-73
0.6041 	-1.44921e-72
0.6048 	-2.84064e-72
0.6055 	-2.21449e-72
0.6062 	-7.81297e-73
0.6069 	-6.55617e-73
0.6076 	-6.14979e-73
0.6083 	-5.74341e-73
0.609 	-8.94964e-73
0.6097 	-1.86588e-72
0.6104 	-1.70758e-72
0.6111 	-7.02356e-73
0.6118 	-4.72611e-73
0.6125 	-4.38498e-73
0.6132 	-4.04385e-73
0.6139 	-5.1584e-73
0.6146 	-1.16107e-72
0.6153 	-1.24215e-72
0.616 	-5.71025e-73
0.6167 	-3.24255e-73
0.6174 	-2.97944e-73
0.6181 	-2.71633e-73
0.6188 	-2.76474e-73
0.6195 	-6.8634e-73
0.6202 	-8.56796e-73
0.6209 	-4.28731e-73
0.6216 	-2.1239e-73
0.6223 	-1.93552e-73
0.623 	-1.7466e-73
0.6237 	-1.55767e-73
0.6244 	-3.86233e-73
0.6251 	-5.62836e-73
0.6258 	-3.01161e-73
0.6265 	-1.31886e-73
0.6272 	-1.20569e-73
0.6279 	-1.07821e-73
0.6286 	-9.50726e-74
0.6293 	-2.07211e-73
0.63 	-3.5341e-73
0.6307 	-1.99687e-73
0.6314 	-7.85187e-74
0.6321 	-7.2207e-74
0.6328 	-6.40649e-74
0.6335 	-5.59229e-74
0.6342 	-1.0605e-73
0.6349 	-1.88549e-73
0.6356 	-1.25779e-73
0.6363 	-4.49357e-74
0.637 	-4.16684e-74
0.6377 	-3.67189e-74
0.6384 	-3.17694e-74
0.6391 	-5.17638e-74
0.6398 	-9.67031e-74
0.6405 	-7.56192e-74
0.6412 	-2.81259e-74
0.6419 	-2.32141e-74
0.6426 	-2.03376e-74
0.6433 	-1.74612e-74
0.644 	-2.40633e-74
0.6447 	-4.77274e-74
0.6454 	-4.35488e-74
0.6461 	-1.84881e-74
0.6468 	-1.25058e-74
0.6475 	-1.0902e-74
0.6482 	-9.29821e-75
0.6489 	-1.06222e-74
0.6496 	-2.26818e-74
0.6503 	-2.40897e-74
0.651 	-1.12952e-74
0.6517 	-6.52323e-75
0.6524 	-5.66291e-75
0.6531 	-4.80259e-75
0.6538 	-4.42889e-75
0.6545 	-1.0382e-74
0.6552 	-1.28268e-74
0.6559 	-6.50088e-75
0.6566 	-3.29753e-75
0.6573 	-2.85318e-75
0.658 	-2.40819e-75
0.6587 	-1.9632e-75
0.6594 	-4.57645e-75
0.6601 	-6.58501e-75
0.6608 	-3.55383e-75
0.6615 	-1.59131e-75
0.6622 	-1.39546e-75
0.6629 	-1.17314e-75
0.6636 	-9.5082e-76
0.6643 	-1.94186e-75
0.665 	-3.26384e-75
0.6657 	-1.85533e-75
0.6664 	-7.44762e-76
0.6671 	-6.62942e-76
0.6678 	-5.55509e-76
0.6685 	-4.48077e-76
0.6692 	-7.9243e-76
0.6699 	-1.38778e-75
0.6706 	-9.28526e-76
0.6713 	-3.38277e-76
0.672 	-3.06076e-76
0.6727 	-2.55807e-76
0.6734 	-2.05537e-76
0.6741 	-3.10551e-76
0.6748 	-5.70853e-76
0.6755 	-4.46712e-76
0.6762 	-1.68793e-76
0.6769 	-1.37393e-76
0.6776 	-1.14597e-76
0.6783 	-9.18005e-77
0.679 	-1.16625e-76
0.6797 	-2.27169e-76
0.6804 	-2.07045e-76
0.6811 	-8.8919e-77
0.6818 	-5.99859e-77
0.6825 	-4.99596e-77
0.6832 	-3.99333e-77
0.6839 	-4.18309e-77
0.6846 	-8.74511e-77
0.6853 	-9.26123e-77
0.686 	-4.3828e-77
0.6867 	-2.54821e-77
0.6874 	-2.12024e-77
0.6881 	-1.69228e-77
0.6888 	-1.42561e-77
0.6895 	-3.2561e-77
0.6902 	-4.00398e-77
0.6909 	-2.04537e-77
0.6916 	-1.05353e-77
0.6923 	-8.76209e-78
0.693 	-6.98814e-78
0.6937 	-5.21419e-78
0.6944 	-1.17219e-77
0.6951 	-1.67535e-77
0.6958 	-9.10491e-78
0.6965 	-4.16281e-78
0.6972 	-3.71376e-78
0.6979 	-3.20141e-78
0.6986 	-2.68906e-78
0.6993 	-5.79683e-78
0.7 	-9.89195e-78
