0 	1
0.0007 	1
0.0014 	1
0.0021 	1
0.0028 	1
0.0035 	1
0.0042 	1
0.0049 	1
0.0056 	1
0.0063 	1
0.007 	1
0.0077 	1
0.0084 	1
0.0091 	1
0.0098 	1
0.0105 	1
0.0112 	1
0.0119 	1
0.0126 	1
0.0133 	1
0.014 	1
0.0147 	1
0.0154 	1
0.0161 	1
0.0168 	1
0.0175 	1
0.0182 	1
0.0189 	1
0.0196 	1
0.0203 	1
0.021 	1
0.0217 	1
0.0224 	1
0.0231 	1
0.0238 	1
0.0245 	1
0.0252 	1
0.0259 	1
0.0266 	1
0.0273 	1
0.028 	1
0.0287 	1
0.0294 	1
0.0301 	1
0.0308 	1
0.0315 	1
0.0322 	1
0.0329 	1
0.0336 	1
0.0343 	1
0.035 	1
0.0357 	1
0.0364 	1
0.0371 	1
0.0378 	1
0.0385 	1
0.0392 	1
0.0399 	1
0.0406 	1
0.0413 	1
0.042 	1
0.0427 	1
0.0434 	1
0.0441 	1
0.0448 	1
0.0455 	1
0.0462 	1
0.0469 	1
0.0476 	1
0.0483 	1
0.049 	1
0.0497 	1
0.0504 	1
0.0511 	1
0.0518 	1
0.0525 	1
0.0532 	1
0.0539 	1
0.0546 	1
0.0553 	1
0.056 	1
0.0567 	1
0.0574 	1
0.0581 	1
0.0588 	1
0.0595 	1
0.0602 	1
0.0609 	1
0.0616 	1
0.0623 	1
0.063 	1
0.0637 	1
0.0644 	1
0.0651 	1
0.0658 	1
0.0665 	1
0.0672 	1
0.0679 	1
0.0686 	1
0.0693 	1
0.07 	1
0.0707 	1
0.0714 	1
0.0721 	1
0.0728 	1
0.0735 	1
0.0742 	1
0.0749 	1
0.0756 	1
0.0763 	1
0.077 	1
0.0777 	1
0.0784 	1
0.0791 	1
0.0798 	1
0.0805 	1
0.0812 	1
0.0819 	1
0.0826 	1
0.0833 	1
0.084 	1
0.0847 	1
0.0854 	1
0.0861 	1
0.0868 	1
0.0875 	1
0.0882 	1
0.0889 	1
0.0896 	1
0.0903 	1
0.091 	1
0.0917 	1
0.0924 	1
0.0931 	1
0.0938 	1
0.0945 	1
0.0952 	1
0.0959 	1
0.0966 	1
0.0973 	1
0.098 	1
0.0987 	1
0.0994 	1
0.1001 	1
0.1008 	1
0.1015 	1
0.1022 	1
0.1029 	1
0.1036 	1
0.1043 	1
0.105 	1
0.1057 	1
0.1064 	1
0.1071 	1
0.1078 	1
0.1085 	1
0.1092 	1
0.1099 	1
0.1106 	1
0.1113 	1
0.112 	1
0.1127 	1
0.1134 	1
0.1141 	1
0.1148 	1
0.1155 	1
0.1162 	1
0.1169 	1
0.1176 	1
0.1183 	1
0.119 	1
0.1197 	1
0.1204 	1
0.1211 	1
0.1218 	1
0.1225 	1
0.1232 	1
0.1239 	1
0.1246 	1
0.1253 	1
0.126 	1
0.1267 	1
0.1274 	1
0.1281 	1
0.1288 	1
0.1295 	1
0.1302 	1
0.1309 	1
0.1316 	1
0.1323 	1
0.133 	1
0.1337 	1
0.1344 	1
0.1351 	1
0.1358 	1
0.1365 	1
0.1372 	1
0.1379 	1
0.1386 	1
0.1393 	1
0.14 	1
0.1407 	1
0.1414 	1
0.1421 	1
0.1428 	1
0.1435 	1
0.1442 	1
0.1449 	1
0.1456 	1
0.1463 	1
0.147 	1
0.1477 	1
0.1484 	1
0.1491 	1
0.1498 	1
0.1505 	1
0.1512 	1
0.1519 	1
0.1526 	1
0.1533 	1
0.154 	1
0.1547 	1
0.1554 	1
0.1561 	1
0.1568 	1
0.1575 	1
0.1582 	1
0.1589 	1
0.1596 	1
0.1603 	1
0.161 	1
0.1617 	1
0.1624 	1
0.1631 	1
0.1638 	1
0.1645 	1
0.1652 	1
0.1659 	0.999997
0.1666 	0.999993
0.1673 	0.99999
0.168 	0.999986
0.1687 	0.999982
0.1694 	0.999979
0.1701 	0.999971
0.1708 	0.999938
0.1715 	0.999887
0.1722 	0.999837
0.1729 	0.999787
0.1736 	0.999737
0.1743 	0.999687
0.175 	0.99959
0.1757 	0.99917
0.1764 	0.998355
0.1771 	0.997541
0.1778 	0.996726
0.1785 	0.995912
0.1792 	0.995097
0.1799 	0.993583
0.1806 	0.987457
0.1813 	0.971252
0.182 	0.955051
0.1827 	0.938851
0.1834 	0.922651
0.1841 	0.90645
0.1848 	0.883178
0.1855 	0.839484
0.1862 	0.783437
0.1869 	0.727394
0.1876 	0.671351
0.1883 	0.615309
0.189 	0.559266
0.1897 	0.500487
0.1904 	0.42223
0.1911 	0.36922
0.1918 	0.316207
0.1925 	0.263193
0.1932 	0.210178
0.1939 	0.157164
0.1946 	0.104199
0.1953 	0.0869499
0.196 	0.0728532
0.1967 	0.0597223
0.1974 	0.0465896
0.1981 	0.0334569
0.1988 	0.0203242
0.1995 	0.00719145
0.2002 	0.00479094
0.2009 	0.00397417
0.2016 	0.0032319
0.2023 	0.00248941
0.203 	0.00174692
0.2037 	0.00100442
0.2044 	0.00026193
0.2051 	5.12866e-05
0.2058 	4.27292e-05
0.2065 	3.48683e-05
0.2072 	2.7003e-05
0.2079 	1.91376e-05
0.2086 	1.12723e-05
0.2093 	3.40693e-06
0.21 	8.35931e-08
0.2107 	6.97377e-08
0.2114 	5.72837e-08
0.2121 	4.48193e-08
0.2128 	3.23549e-08
0.2135 	1.98905e-08
0.2142 	7.42609e-09
0.2149 	3.62e-10
0.2156 	2.8686e-10
0.2163 	2.42653e-10
0.217 	1.9845e-10
0.2177 	1.54247e-10
0.2184 	1.10044e-10
0.2191 	6.58405e-11
0.2198 	3.29162e-11
0.2205 	2.74567e-11
0.2212 	2.43818e-11
0.2219 	2.13053e-11
0.2226 	1.82286e-11
0.2233 	1.51519e-11
0.224 	1.20752e-11
0.2247 	9.34581e-12
0.2254 	8.47308e-12
0.2261 	7.86166e-12
0.2268 	7.25344e-12
0.2275 	6.64517e-12
0.2282 	6.03691e-12
0.2289 	5.42864e-12
0.2296 	4.82484e-12
0.2303 	4.55299e-12
0.231 	4.30079e-12
0.2317 	4.05909e-12
0.2324 	3.81756e-12
0.2331 	3.57603e-12
0.2338 	3.33449e-12
0.2345 	3.09296e-12
0.2352 	2.91353e-12
0.2359 	2.73466e-12
0.2366 	2.56543e-12
0.2373 	2.39656e-12
0.238 	2.22769e-12
0.2387 	2.05882e-12
0.2394 	1.88995e-12
0.2401 	1.75377e-12
0.2408 	1.6148e-12
0.2415 	1.48886e-12
0.2422 	1.36339e-12
0.2429 	1.23791e-12
0.2436 	1.11244e-12
0.2443 	9.86966e-13
0.245 	8.94535e-13
0.2457 	8.06577e-13
0.2464 	7.31771e-13
0.2471 	6.57363e-13
0.2478 	5.82955e-13
0.2485 	5.08547e-13
0.2492 	4.34139e-13
0.2499 	3.79606e-13
0.2506 	3.39839e-13
0.2513 	3.0609e-13
0.252 	2.72584e-13
0.2527 	2.39079e-13
0.2534 	2.05573e-13
0.2541 	1.72067e-13
0.2548 	1.4544e-13
0.2555 	1.30461e-13
0.2562 	1.17539e-13
0.2569 	1.04724e-13
0.2576 	9.19174e-14
0.2583 	7.91105e-14
0.259 	6.63036e-14
0.2597 	5.49205e-14
0.2604 	4.93608e-14
0.2611 	4.44566e-14
0.2618 	3.96292e-14
0.2625 	3.48123e-14
0.2632 	2.99953e-14
0.2639 	2.51783e-14
0.2646 	2.04373e-14
0.2653 	1.84028e-14
0.266 	1.64436e-14
0.2667 	1.46145e-14
0.2674 	1.27924e-14
0.2681 	1.09703e-14
0.2688 	9.14816e-15
0.2695 	7.32606e-15
0.2702 	6.47182e-15
0.2709 	5.72585e-15
0.2716 	5.06889e-15
0.2723 	4.41558e-15
0.273 	3.76227e-15
0.2737 	3.10896e-15
0.2744 	2.45566e-15
0.2751 	2.11165e-15
0.2758 	1.84964e-15
0.2765 	1.63297e-15
0.2772 	1.41789e-15
0.2779 	1.20281e-15
0.2786 	9.87725e-16
0.2793 	7.72645e-16
0.28 	6.44862e-16
0.2807 	5.59311e-16
0.2814 	4.93077e-16
0.2821 	4.27454e-16
0.2828 	3.61832e-16
0.2835 	2.96209e-16
0.2842 	2.30586e-16
0.2849 	1.85457e-16
0.2856 	1.60164e-16
0.2863 	1.41052e-16
0.287 	1.22155e-16
0.2877 	1.03258e-16
0.2884 	8.43604e-17
0.2891 	6.54631e-17
0.2898 	5.06711e-17
0.2905 	4.35021e-17
0.2912 	3.82707e-17
0.2919 	3.30992e-17
0.2926 	2.79323e-17
0.2933 	2.27655e-17
0.294 	1.75986e-17
0.2947 	1.30626e-17
0.2954 	1.11586e-17
0.2961 	9.78177e-18
0.2968 	8.44525e-18
0.2975 	7.11241e-18
0.2982 	5.77956e-18
0.2989 	4.44671e-18
0.2996 	3.14757e-18
0.3003 	2.69603e-18
0.301 	2.33525e-18
0.3017 	2.0126e-18
0.3024 	1.69146e-18
0.3031 	1.37032e-18
0.3038 	1.04918e-18
0.3045 	7.28046e-19
0.3052 	6.05126e-19
0.3059 	5.17499e-19
0.3066 	4.45301e-19
0.3073 	3.73587e-19
0.308 	3.01873e-19
0.3087 	2.30158e-19
0.3094 	1.58444e-19
0.3101 	1.25685e-19
0.3108 	1.06082e-19
0.3115 	9.1168e-20
0.3122 	7.63856e-20
0.3129 	6.16032e-20
0.3136 	4.68208e-20
0.3143 	3.20384e-20
0.315 	2.41012e-20
0.3157 	2.00765e-20
0.3164 	1.72373e-20
0.3171 	1.44294e-20
0.3178 	1.16216e-20
0.3185 	8.8137e-21
0.3192 	6.00584e-21
0.3199 	4.22538e-21
0.3206 	3.4994e-21
0.3213 	3.00222e-21
0.322 	2.51169e-21
0.3227 	2.02116e-21
0.3234 	1.53063e-21
0.3241 	1.0401e-21
0.3248 	6.78719e-22
0.3255 	5.59469e-22
0.3262 	4.79778e-22
0.3269 	4.01184e-22
0.3276 	3.22675e-22
0.3283 	2.44165e-22
0.329 	1.65656e-22
0.3297 	9.93099e-23
0.3304 	8.19933e-23
0.3311 	6.99931e-23
0.3318 	5.85057e-23
0.3325 	4.70563e-23
0.3332 	3.56069e-23
0.3339 	2.41575e-23
0.3346 	1.31719e-23
0.3353 	1.10224e-23
0.336 	9.28467e-24
0.3367 	7.76172e-24
0.3374 	6.24742e-24
0.3381 	4.73312e-24
0.3388 	3.21882e-24
0.3395 	1.70451e-24
0.3402 	1.34719e-24
0.3409 	1.12183e-24
0.3416 	9.38739e-25
0.3423 	7.57129e-25
0.343 	5.75519e-25
0.3437 	3.93909e-25
0.3444 	2.12299e-25
0.3451 	1.52063e-25
0.3458 	1.25642e-25
0.3465 	1.05422e-25
0.3472 	8.54126e-26
0.3479 	6.54033e-26
0.3486 	4.5394e-26
0.3493 	2.53846e-26
0.35 	1.67143e-26
0.3507 	1.38095e-26
0.3514 	1.16592e-26
0.3521 	9.53406e-27
0.3528 	7.40893e-27
0.3535 	5.2838e-27
0.3542 	3.15866e-27
0.3549 	1.98291e-27
0.3556 	1.68016e-27
0.3563 	1.4333e-27
0.357 	1.18904e-27
0.3577 	9.44772e-28
0.3584 	7.00509e-28
0.3591 	4.56245e-28
0.3598 	2.89277e-28
0.3605 	2.51942e-28
0.3612 	2.16972e-28
0.3619 	1.82209e-28
0.3626 	1.47461e-28
0.3633 	1.12713e-28
0.364 	7.79645e-29
0.3647 	4.95896e-29
0.3654 	4.39206e-29
0.3661 	3.78435e-29
0.3668 	3.18765e-29
0.3675 	2.59135e-29
0.3682 	1.99504e-29
0.3689 	1.39874e-29
0.3696 	8.34892e-30
0.3703 	7.46154e-30
0.371 	6.37512e-30
0.3717 	5.34876e-30
0.3724 	4.3235e-30
0.3731 	3.29824e-30
0.3738 	2.27298e-30
0.3745 	1.24772e-30
0.3752 	1.05634e-30
0.3759 	8.93099e-31
0.3766 	7.45737e-31
0.3773 	5.9872e-31
0.378 	4.51704e-31
0.3787 	3.04687e-31
0.3794 	1.57671e-31
0.3801 	1.16316e-31
0.3808 	9.75107e-32
0.3815 	8.12684e-32
0.3822 	6.50923e-32
0.3829 	4.89161e-32
0.3836 	3.27399e-32
0.3843 	1.65637e-32
0.385 	1.02442e-32
0.3857 	8.54677e-33
0.3864 	7.12987e-33
0.3871 	5.72035e-33
0.3878 	4.31082e-33
0.3885 	2.90129e-33
0.3892 	1.49177e-33
0.3899 	7.58192e-34
0.3906 	6.41706e-34
0.3913 	5.36305e-34
0.392 	4.31479e-34
0.3927 	3.26653e-34
0.3934 	2.21827e-34
0.3941 	1.17001e-34
0.3948 	4.8422e-35
0.3955 	4.16624e-35
0.3962 	3.48717e-35
0.3969 	2.81145e-35
0.3976 	2.136e-35
0.3983 	1.46055e-35
0.399 	7.85091e-36
0.3997 	2.51281e-36
0.4004 	2.21249e-36
0.4011 	1.84875e-36
0.4018 	1.49305e-36
0.4025 	1.13777e-36
0.4032 	7.82489e-37
0.4039 	4.27211e-37
0.4046 	9.72166e-38
0.4053 	8.84203e-38
0.406 	7.36237e-38
0.4067 	5.95844e-38
0.4074 	4.55761e-38
0.4081 	3.15678e-38
0.4088 	1.75595e-38
0.4095 	3.55125e-39
0.4102 	2.44203e-39
0.4109 	2.03124e-39
0.4116 	1.64858e-39
0.4123 	1.26724e-39
0.413 	8.85901e-40
0.4137 	5.04561e-40
0.4144 	1.23221e-40
0.4151 	4.25177e-41
0.4158 	3.54348e-41
0.4165 	2.88606e-41
0.4172 	2.23185e-41
0.4179 	1.57763e-41
0.4186 	9.23417e-42
0.4193 	2.69202e-42
0.42 	4.05154e-43
0.4207 	3.39323e-43
0.4214 	2.77499e-43
0.4221 	2.16083e-43
0.4228 	1.54666e-43
0.4235 	9.32503e-44
0.4242 	3.18342e-44
0.4249 	1.61237e-45
0.4256 	1.41155e-45
0.4263 	1.1595e-45
0.427 	9.09731e-46
0.4277 	6.59966e-46
0.4284 	4.10201e-46
0.4291 	1.60437e-46
0.4298 	1.99032e-48
0.4305 	1.83394e-48
0.4312 	1.51337e-48
0.4319 	1.19639e-48
0.4326 	8.79693e-49
0.4333 	5.62995e-49
0.434 	2.46297e-49
0.4347 	5.24347e-52
0.4354 	5.09033e-52
0.4361 	4.21899e-52
0.4368 	3.35883e-52
0.4375 	2.50155e-52
0.4382 	1.64426e-52
0.4389 	7.86979e-53
0.4396 	4.71275e-56
0.4403 	4.79445e-56
0.441 	3.99174e-56
0.4417 	3.19904e-56
0.4424 	2.41096e-56
0.4431 	1.62289e-56
0.4438 	8.3481e-57
0.4445 	4.6734e-58
0.4452 	4.13803e-60
0.4459 	3.46013e-60
0.4466 	2.79024e-60
0.4473 	2.12599e-60
0.448 	1.46175e-60
0.4487 	7.97514e-61
0.4494 	1.33273e-61
0.4501 	3.32705e-64
0.4508 	2.79309e-64
0.4515 	2.2655e-64
0.4522 	1.74375e-64
0.4529 	1.22201e-64
0.4536 	7.00263e-65
0.4543 	1.78518e-65
0.455 	3.21727e-68
0.4557 	2.67032e-68
0.4564 	2.17984e-68
0.4571 	1.69443e-68
0.4578 	1.20903e-68
0.4585 	7.23622e-69
0.4592 	2.38216e-69
0.4599 	3.33734e-71
0.4606 	2.54483e-71
0.4613 	2.10319e-71
0.462 	1.65032e-71
0.4627 	1.19746e-71
0.4634 	7.44596e-72
0.4641 	2.91732e-72
0.4648 	7.87255e-74
0.4655 	5.78829e-74
0.4662 	4.7515e-74
0.4669 	3.6978e-74
0.4676 	2.6428e-74
0.4683 	1.58781e-74
0.469 	5.32811e-75
0.4697 	-3.34046e-75
0.4704 	-2.99505e-75
0.4711 	-4.44179e-75
0.4718 	-4.84261e-75
0.4725 	-4.84989e-75
0.4732 	-4.85717e-75
0.4739 	-4.86446e-75
0.4746 	-5.27364e-75
0.4753 	-5.89611e-75
0.476 	-4.94376e-75
0.4767 	-4.97656e-75
0.4774 	-4.97643e-75
0.4781 	-4.9763e-75
0.4788 	-4.97617e-75
0.4795 	-4.97604e-75
0.4802 	-6.65911e-75
0.4809 	-4.68104e-75
0.4816 	-4.44328e-75
0.4823 	-4.44253e-75
0.483 	-4.44179e-75
0.4837 	-4.44104e-75
0.4844 	-4.4403e-75
0.4851 	-6.51321e-75
0.4858 	-4.19676e-75
0.4865 	-3.86938e-75
0.4872 	-3.86856e-75
0.4879 	-3.86774e-75
0.4886 	-3.86693e-75
0.4893 	-3.86611e-75
0.49 	-6.16998e-75
0.4907 	-3.74001e-75
0.4914 	-3.4448e-75
0.4921 	-3.44406e-75
0.4928 	-3.44331e-75
0.4935 	-3.44256e-75
0.4942 	-3.44181e-75
0.4949 	-5.06032e-75
0.4956 	-3.38992e-75
0.4963 	-3.14022e-75
0.497 	-3.13961e-75
0.4977 	-3.13899e-75
0.4984 	-3.13838e-75
0.4991 	-3.13776e-75
0.4998 	-4.21801e-75
0.5005 	-3.12429e-75
0.5012 	-2.8383e-75
0.5019 	-2.81768e-75
0.5026 	-2.81747e-75
0.5033 	-2.81727e-75
0.504 	-2.81706e-75
0.5047 	-3.43084e-75
0.5054 	-3.07113e-75
0.5061 	-2.49472e-75
0.5068 	-2.41804e-75
0.5075 	-2.41811e-75
0.5082 	-2.41817e-75
0.5089 	-2.41824e-75
0.5096 	-2.63891e-75
0.5103 	-2.94778e-75
0.511 	-2.13417e-75
0.5117 	-1.99985e-75
0.5124 	-1.99971e-75
0.5131 	-1.99956e-75
0.5138 	-1.99941e-75
0.5145 	-1.99926e-75
0.5152 	-2.69393e-75
0.5159 	-1.79821e-75
0.5166 	-1.63399e-75
0.5173 	-1.63361e-75
0.518 	-1.63323e-75
0.5187 	-1.63285e-75
0.5194 	-1.63247e-75
0.5201 	-2.40977e-75
0.5208 	-1.51391e-75
0.5215 	-1.35153e-75
0.5222 	-1.35111e-75
0.5229 	-1.35069e-75
0.5236 	-1.35026e-75
0.5243 	-1.34984e-75
0.525 	-2.16674e-75
0.5257 	-1.28502e-75
0.5264 	-1.12898e-75
0.5271 	-1.12862e-75
0.5278 	-1.12826e-75
0.5285 	-1.1279e-75
0.5292 	-1.12755e-75
0.5299 	-1.66746e-75
0.5306 	-1.09611e-75
0.5313 	-9.36059e-76
0.532 	-9.3587e-76
0.5327 	-9.35682e-76
0.5334 	-9.35493e-76
0.5341 	-9.35304e-76
0.5348 	-1.26467e-75
0.5355 	-9.29612e-76
0.5362 	-7.76086e-76
0.5369 	-7.65107e-76
0.5376 	-7.65094e-76
0.5383 	-7.65081e-76
0.539 	-7.65068e-76
0.5397 	-9.37323e-76
0.5404 	-8.39664e-76
0.5411 	-6.41938e-76
0.5418 	-6.12388e-76
0.5425 	-6.1242e-76
0.5432 	-6.12452e-76
0.5439 	-6.12484e-76
0.5446 	-6.72724e-76
0.5453 	-7.5056e-76
0.546 	-5.20775e-76
0.5467 	-4.76999e-76
0.5474 	-4.77015e-76
0.5481 	-4.77031e-76
0.5488 	-4.77047e-76
0.5495 	-4.77063e-76
0.5502 	-6.44974e-76
0.5509 	-4.12486e-76
0.5516 	-3.5909e-76
0.5523 	-3.5912e-76
0.553 	-3.5915e-76
0.5537 	-3.5918e-76
0.5544 	-3.5921e-76
0.5551 	-5.30279e-76
0.5558 	-3.18039e-76
0.5565 	-2.60585e-76
0.5572 	-2.60577e-76
0.5579 	-2.60569e-76
0.5586 	-2.60561e-76
0.5593 	-2.60553e-76
0.56 	-4.16e-76
0.5607 	-2.38102e-76
0.5614 	-1.82571e-76
0.5621 	-1.82407e-76
0.5628 	-1.82243e-76
0.5635 	-1.82079e-76
0.5642 	-1.81915e-76
0.5649 	-2.6683e-76
0.5656 	-1.72583e-76
0.5663 	-1.23674e-76
0.567 	-1.23363e-76
0.5677 	-1.23052e-76
0.5684 	-1.22741e-76
0.5691 	-1.2243e-76
0.5698 	-1.64006e-76
0.5705 	-1.20979e-76
0.5712 	-8.37083e-77
0.5719 	-8.07228e-77
0.5726 	-8.03747e-77
0.5733 	-8.00265e-77
0.574 	-7.96784e-77
0.5747 	-9.6816e-77
0.5754 	-8.7071e-77
0.5761 	-5.68808e-77
0.5768 	-5.12269e-77
0.5775 	-5.09243e-77
0.5782 	-5.06217e-77
0.5789 	-5.03191e-77
0.5796 	-5.49907e-77
0.5803 	-6.08863e-77
0.581 	-3.76647e-77
0.5817 	-3.16127e-77
0.5824 	-3.13831e-77
0.5831 	-3.11536e-77
0.5838 	-3.09241e-77
0.5845 	-3.06945e-77
0.5852 	-4.09925e-77
0.5859 	-2.43333e-77
0.5866 	-1.90137e-77
0.5873 	-1.88532e-77
0.588 	-1.86927e-77
0.5887 	-1.85322e-77
0.5894 	-1.83716e-77
0.5901 	-2.66816e-77
0.5908 	-1.53522e-77
0.5915 	-1.11645e-77
0.5922 	-1.10584e-77
0.5929 	-1.09522e-77
0.5936 	-1.0846e-77
0.5943 	-1.07398e-77
0.595 	-1.68392e-77
0.5957 	-9.46544e-78
0.5964 	-6.40802e-78
0.5971 	-6.34075e-78
0.5978 	-6.27348e-78
0.5985 	-6.20621e-78
0.5992 	-6.13893e-78
0.5999 	-8.88115e-78
0.6006 	-5.7063e-78
0.6013 	-3.59867e-78
0.602 	-3.55754e-78
0.6027 	-3.51641e-78
0.6034 	-3.47528e-78
0.6041 	-3.43415e-78
0.6048 	-4.55484e-78
0.6055 	-3.36528e-78
0.6062 	-2.0697e-78
0.6069 	-1.95453e-78
0.6076 	-1.93016e-78
0.6083 	-1.90578e-78
0.609 	-1.88141e-78
0.6097 	-2.27047e-78
0.6104 	-2.04345e-78
0.6111 	-1.21827e-78
0.6118 	-1.05208e-78
0.6125 	-1.03803e-78
0.6132 	-1.02399e-78
0.6139 	-1.00994e-78
0.6146 	-1.09887e-78
0.6153 	-1.21217e-78
0.616 	-7.01468e-79
0.6167 	-5.54983e-79
0.6174 	-5.4709e-79
0.6181 	-5.39197e-79
0.6188 	-5.31304e-79
0.6195 	-5.23411e-79
0.6202 	-6.9763e-79
0.6209 	-3.95039e-79
0.6216 	-2.86859e-79
0.6223 	-2.82529e-79
0.623 	-2.78199e-79
0.6237 	-2.73869e-79
0.6244 	-2.69539e-79
0.6251 	-3.90121e-79
0.6258 	-2.17509e-79
0.6265 	-1.45181e-79
0.6272 	-1.42859e-79
0.6279 	-1.40538e-79
0.6286 	-1.38216e-79
0.6293 	-1.35895e-79
0.63 	-2.12079e-79
0.6307 	-1.16999e-79
0.6314 	-7.18402e-80
0.6321 	-7.06233e-80
0.6328 	-6.94064e-80
0.6335 	-6.81895e-80
0.6342 	-6.69727e-80
0.6349 	-9.64638e-80
0.6356 	-6.1397e-80
0.6363 	-3.46729e-80
0.637 	-3.40498e-80
0.6377 	-3.34267e-80
0.6384 	-3.28037e-80
0.6391 	-3.21806e-80
0.6398 	-4.24983e-80
0.6405 	-3.13618e-80
0.6412 	-1.725e-80
0.6419 	-1.59532e-80
0.6426 	-1.56422e-80
0.6433 	-1.53312e-80
0.644 	-1.50202e-80
0.6447 	-1.80457e-80
0.6454 	-1.62368e-80
0.6461 	-8.79331e-81
0.6468 	-7.22859e-81
0.6475 	-7.07773e-81
0.6482 	-6.92688e-81
0.6489 	-6.77602e-81
0.6496 	-7.33695e-81
0.6503 	-8.07345e-81
0.651 	-4.31101e-81
0.6517 	-3.14842e-81
0.6524 	-3.07768e-81
0.6531 	-3.00694e-81
0.6538 	-2.9362e-81
0.6545 	-2.86546e-81
0.6552 	-3.81655e-81
0.6559 	-2.02257e-81
0.6566 	-1.30865e-81
0.6573 	-1.27679e-81
0.658 	-1.24493e-81
0.6587 	-1.21307e-81
0.6594 	-1.18121e-81
0.6601 	-1.70507e-81
0.6608 	-9.02317e-82
0.6615 	-5.1485e-82
0.6622 	-5.01177e-82
0.6629 	-4.87504e-82
0.6636 	-4.73831e-82
0.6643 	-4.60158e-82
0.665 	-7.14582e-82
0.6657 	-3.79839e-82
0.6664 	-1.89999e-82
0.6671 	-1.8446e-82
0.6678 	-1.78921e-82
0.6685 	-1.73383e-82
0.6692 	-1.67844e-82
0.6699 	-2.40034e-82
0.6706 	-1.49536e-82
0.6713 	-6.51471e-83
0.672 	-6.30506e-83
0.6727 	-6.09542e-83
0.6734 	-5.88577e-83
0.6741 	-5.67612e-83
0.6748 	-7.41912e-83
0.6755 	-5.45111e-83
0.6762 	-2.27669e-83
0.6769 	-1.98185e-83
0.6776 	-1.90851e-83
0.6783 	-1.83517e-83
0.679 	-1.76183e-83
0.6797 	-2.0857e-83
0.6804 	-1.87167e-83
0.6811 	-8.03601e-84
0.6818 	-5.67267e-84
0.6825 	-5.4382e-84
0.6832 	-5.20372e-84
0.6839 	-4.96925e-84
0.6846 	-5.26973e-84
0.6853 	-5.77782e-84
0.686 	-2.56136e-84
0.6867 	-1.46482e-84
0.6874 	-1.39707e-84
0.6881 	-1.32932e-84
0.6888 	-1.26157e-84
0.6895 	-1.19382e-84
0.6902 	-1.58608e-84
0.6909 	-7.29785e-85
0.6916 	-3.38411e-85
0.6923 	-3.20905e-85
0.693 	-3.034e-85
0.6937 	-2.85895e-85
0.6944 	-2.6839e-85
0.6951 	-3.84327e-85
0.6958 	-1.97385e-85
0.6965 	-1.02405e-85
0.6972 	-9.90822e-86
0.6979 	-9.57589e-86
0.6986 	-9.24357e-86
0.6993 	-8.91125e-86
0.7 	-1.38966e-85
