0 	1
0.0007 	1
0.0014 	1
0.0021 	1
0.0028 	1
0.0035 	1
0.0042 	1
0.0049 	1
0.0056 	1
0.0063 	1
0.007 	1
0.0077 	1
0.0084 	1
0.0091 	1
0.0098 	1
0.0105 	1
0.0112 	1
0.0119 	1
0.0126 	1
0.0133 	1
0.014 	1
0.0147 	1
0.0154 	1
0.0161 	1
0.0168 	1
0.0175 	1
0.0182 	1
0.0189 	1
0.0196 	1
0.0203 	1
0.021 	1
0.0217 	1
0.0224 	1
0.0231 	1
0.0238 	1
0.0245 	1
0.0252 	1
0.0259 	1
0.0266 	1
0.0273 	1
0.028 	1
0.0287 	1
0.0294 	1
0.0301 	1
0.0308 	1
0.0315 	1
0.0322 	1
0.0329 	1
0.0336 	1
0.0343 	1
0.035 	1
0.0357 	1
0.0364 	1
0.0371 	1
0.0378 	1
0.0385 	1
0.0392 	1
0.0399 	1
0.0406 	1
0.0413 	1
0.042 	1
0.0427 	1
0.0434 	1
0.0441 	1
0.0448 	1
0.0455 	1
0.0462 	1
0.0469 	1
0.0476 	1
0.0483 	1
0.049 	1
0.0497 	1
0.0504 	1
0.0511 	1
0.0518 	1
0.0525 	1
0.0532 	1
0.0539 	1
0.0546 	1
0.0553 	1
0.056 	1
0.0567 	1
0.0574 	1
0.0581 	1
0.0588 	1
0.0595 	1
0.0602 	1
0.0609 	1
0.0616 	1
0.0623 	1
0.063 	1
0.0637 	1
0.0644 	1
0.0651 	1
0.0658 	1
0.0665 	1
0.0672 	1
0.0679 	1
0.0686 	1
0.0693 	1
0.07 	1
0.0707 	1
0.0714 	1
0.0721 	1
0.0728 	1
0.0735 	1
0.0742 	1
0.0749 	1
0.0756 	1
0.0763 	1
0.077 	1
0.0777 	1
0.0784 	1
0.0791 	1
0.0798 	1
0.0805 	1
0.0812 	1
0.0819 	1
0.0826 	1
0.0833 	1
0.084 	1
0.0847 	1
0.0854 	1
0.0861 	1
0.0868 	1
0.0875 	1
0.0882 	1
0.0889 	1
0.0896 	1
0.0903 	1
0.091 	1
0.0917 	1
0.0924 	1
0.0931 	1
0.0938 	1
0.0945 	1
0.0952 	1
0.0959 	1
0.0966 	1
0.0973 	1
0.098 	1
0.0987 	1
0.0994 	1
0.1001 	1
0.1008 	1
0.1015 	1
0.1022 	1
0.1029 	1
0.1036 	1
0.1043 	1
0.105 	1
0.1057 	1
0.1064 	1
0.1071 	1
0.1078 	1
0.1085 	1
0.1092 	1
0.1099 	1
0.1106 	1
0.1113 	1
0.112 	1
0.1127 	1
0.1134 	1
0.1141 	1
0.1148 	1
0.1155 	1
0.1162 	1
0.1169 	1
0.1176 	1
0.1183 	1
0.119 	1
0.1197 	1
0.1204 	1
0.1211 	1
0.1218 	1
0.1225 	1
0.1232 	1
0.1239 	1
0.1246 	1
0.1253 	1
0.126 	1
0.1267 	1
0.1274 	1
0.1281 	1
0.1288 	1
0.1295 	1
0.1302 	1
0.1309 	1
0.1316 	1
0.1323 	1
0.133 	1
0.1337 	1
0.1344 	1
0.1351 	1
0.1358 	1
0.1365 	1
0.1372 	1
0.1379 	1
0.1386 	1
0.1393 	1
0.14 	1
0.1407 	1
0.1414 	1
0.1421 	1
0.1428 	1
0.1435 	1
0.1442 	1
0.1449 	1
0.1456 	1
0.1463 	1
0.147 	1
0.1477 	1
0.1484 	1
0.1491 	1
0.1498 	1
0.1505 	1
0.1512 	1
0.1519 	1
0.1526 	1
0.1533 	1
0.154 	1
0.1547 	1
0.1554 	1
0.1561 	1
0.1568 	1
0.1575 	1
0.1582 	1
0.1589 	1
0.1596 	1
0.1603 	1
0.161 	1
0.1617 	1
0.1624 	1
0.1631 	1
0.1638 	1
0.1645 	1
0.1652 	1
0.1659 	1
0.1666 	1
0.1673 	1
0.168 	1
0.1687 	1
0.1694 	1
0.1701 	1
0.1708 	1
0.1715 	1
0.1722 	1
0.1729 	1
0.1736 	1
0.1743 	1
0.175 	1
0.1757 	1
0.1764 	1
0.1771 	1
0.1778 	1
0.1785 	1
0.1792 	1
0.1799 	1
0.1806 	1
0.1813 	1
0.182 	1
0.1827 	1
0.1834 	1
0.1841 	1
0.1848 	1
0.1855 	1
0.1862 	1
0.1869 	1
0.1876 	1
0.1883 	1
0.189 	1
0.1897 	1
0.1904 	1
0.1911 	1
0.1918 	1
0.1925 	1
0.1932 	1
0.1939 	1
0.1946 	1
0.1953 	1
0.196 	1
0.1967 	1
0.1974 	1
0.1981 	1
0.1988 	1
0.1995 	1
0.2002 	1
0.2009 	1
0.2016 	1
0.2023 	1
0.203 	1
0.2037 	1
0.2044 	1
0.2051 	1
0.2058 	1
0.2065 	1
0.2072 	1
0.2079 	1
0.2086 	1
0.2093 	1
0.21 	1
0.2107 	1
0.2114 	1
0.2121 	1
0.2128 	1
0.2135 	1
0.2142 	1
0.2149 	1
0.2156 	1
0.2163 	1
0.217 	1
0.2177 	1
0.2184 	1
0.2191 	1
0.2198 	1
0.2205 	1
0.2212 	1
0.2219 	1
0.2226 	1
0.2233 	1
0.224 	1
0.2247 	1
0.2254 	1
0.2261 	1
0.2268 	1
0.2275 	1
0.2282 	1
0.2289 	1
0.2296 	1
0.2303 	1
0.231 	1
0.2317 	1
0.2324 	1
0.2331 	1
0.2338 	1
0.2345 	1
0.2352 	1
0.2359 	1
0.2366 	1
0.2373 	1
0.238 	1
0.2387 	1
0.2394 	1
0.2401 	1
0.2408 	1
0.2415 	1
0.2422 	0.999999
0.2429 	0.999999
0.2436 	0.999999
0.2443 	0.999999
0.245 	0.999998
0.2457 	0.999997
0.2464 	0.999994
0.2471 	0.999991
0.2478 	0.999988
0.2485 	0.999985
0.2492 	0.999982
0.2499 	0.999978
0.2506 	0.999958
0.2513 	0.99991
0.252 	0.999861
0.2527 	0.999813
0.2534 	0.999765
0.2541 	0.999717
0.2548 	0.999659
0.2555 	0.999353
0.2562 	0.998263
0.2569 	0.997173
0.2576 	0.996083
0.2583 	0.994993
0.259 	0.993903
0.2597 	0.992735
0.2604 	0.989225
0.2611 	0.96722
0.2618 	0.945214
0.2625 	0.923207
0.2632 	0.9012
0.2639 	0.879192
0.2646 	0.857185
0.2653 	0.816261
0.266 	0.757647
0.2667 	0.697679
0.2674 	0.637711
0.2681 	0.577742
0.2688 	0.517773
0.2695 	0.457804
0.2702 	0.383657
0.2709 	0.329516
0.2716 	0.281905
0.2723 	0.234296
0.273 	0.186686
0.2737 	0.139076
0.2744 	0.0914666
0.2751 	0.0636574
0.2758 	0.0518229
0.2765 	0.0428875
0.2772 	0.0339533
0.2779 	0.0250191
0.2786 	0.016085
0.2793 	0.0071508
0.28 	0.00241659
0.2807 	0.0019175
0.2814 	0.0015797
0.2821 	0.00124207
0.2828 	0.000904442
0.2835 	0.000566813
0.2842 	0.000229184
0.2849 	1.41364e-05
0.2856 	1.10313e-05
0.2863 	9.12041e-06
0.287 	7.21198e-06
0.2877 	5.30354e-06
0.2884 	3.39511e-06
0.2891 	1.48668e-06
0.2898 	9.17933e-09
0.2905 	7.05616e-09
0.2912 	5.86131e-09
0.2919 	4.66877e-09
0.2926 	3.47641e-09
0.2933 	2.28404e-09
0.294 	1.09168e-09
0.2947 	5.65687e-13
0.2954 	4.28878e-13
0.2961 	3.57959e-13
0.2968 	2.87147e-13
0.2975 	2.16363e-13
0.2982 	1.4558e-13
0.2989 	7.47966e-14
0.2996 	4.01326e-15
0.3003 	2.48774e-17
0.301 	2.05966e-17
0.3017 	1.66338e-17
0.3024 	1.26714e-17
0.3031 	8.70897e-18
0.3038 	4.74656e-18
0.3045 	7.84139e-19
0.3052 	1.55139e-21
0.3059 	1.2649e-21
0.3066 	1.02817e-21
0.3073 	7.9121e-22
0.308 	5.54253e-22
0.3087 	3.17296e-22
0.3094 	8.03389e-23
0.3101 	9.36907e-26
0.3108 	7.53473e-26
0.3115 	6.16306e-26
0.3122 	4.78744e-26
0.3129 	3.41181e-26
0.3136 	2.03619e-26
0.3143 	6.60563e-27
0.315 	5.4295e-30
0.3157 	4.31279e-30
0.3164 	3.54927e-30
0.3171 	2.78126e-30
0.3178 	2.01324e-30
0.3185 	1.24522e-30
0.3192 	4.772e-31
0.3199 	3.02646e-34
0.3206 	2.37121e-34
0.3213 	1.96311e-34
0.322 	1.55091e-34
0.3227 	1.1387e-34
0.3234 	7.26502e-35
0.3241 	3.143e-35
0.3248 	1.62149e-38
0.3255 	1.25399e-38
0.3262 	1.04403e-38
0.3269 	8.3129e-39
0.3276 	6.18338e-39
0.3283 	4.05385e-39
0.329 	1.92433e-39
0.3297 	8.36382e-43
0.3304 	6.38661e-43
0.3311 	5.34474e-43
0.3318 	4.28844e-43
0.3325 	3.22821e-43
0.3332 	2.16797e-43
0.3339 	1.10774e-43
0.3346 	4.75016e-45
0.3353 	3.1773e-47
0.336 	2.63538e-47
0.3367 	2.1302e-47
0.3374 	1.62131e-47
0.3381 	1.11242e-47
0.3388 	6.03527e-48
0.3395 	9.46362e-49
0.3402 	1.53011e-51
0.3409 	1.25068e-51
0.3416 	1.01812e-51
0.3423 	7.82835e-52
0.343 	5.47547e-52
0.3437 	3.12259e-52
0.3444 	7.69706e-53
0.3451 	7.07608e-56
0.3458 	5.70335e-56
0.3465 	4.67451e-56
0.3472 	3.62837e-56
0.3479 	2.58222e-56
0.3486 	1.53607e-56
0.3493 	4.89918e-57
0.35 	3.13766e-60
0.3507 	2.49497e-60
0.3514 	2.05824e-60
0.3521 	1.61172e-60
0.3528 	1.1652e-60
0.3535 	7.18672e-61
0.3542 	2.72149e-61
0.3549 	1.33784e-64
0.3556 	1.04612e-64
0.3563 	8.68382e-65
0.357 	6.85591e-65
0.3577 	5.02799e-65
0.3584 	3.20008e-65
0.3591 	1.37216e-65
0.3598 	5.46955e-69
0.3605 	4.20598e-69
0.3612 	3.51052e-69
0.3619 	2.79417e-69
0.3626 	2.07622e-69
0.3633 	1.35827e-69
0.364 	6.40317e-70
0.3647 	2.14772e-73
0.3654 	1.62416e-73
0.3661 	1.362e-73
0.3668 	1.09291e-73
0.3675 	8.21923e-74
0.3682 	5.50936e-74
0.3689 	2.79949e-74
0.3696 	8.96139e-76
0.3703 	6.13787e-78
0.371 	5.08597e-78
0.3717 	4.11257e-78
0.3724 	3.12735e-78
0.3731 	2.14214e-78
0.3738 	1.15692e-78
0.3745 	1.71706e-79
0.3752 	2.2482e-82
0.3759 	1.83262e-82
0.3766 	1.49267e-82
0.3773 	1.14678e-82
0.378 	8.0089e-83
0.3787 	4.55e-83
0.3794 	1.0911e-83
0.3801 	-2.38675e-86
0.3808 	4.08723e-87
0.3815 	2.61877e-87
0.3822 	1.44399e-87
0.3829 	2.69202e-88
0.3836 	-9.05583e-88
0.3843 	-2.08037e-87
0.385 	-5.78798e-86
0.3857 	-1.99472e-87
0.3864 	-9.24385e-88
0.3871 	-9.24257e-88
0.3878 	-9.24129e-88
0.3885 	-9.24001e-88
0.3892 	-9.23874e-88
0.3899 	-1.45866e-86
0.3906 	-7.46127e-88
0.3913 	-2.1749e-88
0.392 	-2.17451e-88
0.3927 	-2.17412e-88
0.3934 	-2.17373e-88
0.3941 	-2.17334e-88
0.3948 	-2.31172e-87
0.3955 	-1.93435e-88
0.3962 	-5.10215e-89
0.3969 	-4.08425e-89
0.3976 	-4.08352e-89
0.3983 	-4.08279e-89
0.399 	-4.08206e-89
0.3997 	-2.26454e-88
0.4004 	-4.01724e-89
0.4011 	-1.24647e-89
0.4018 	-6.52642e-90
0.4025 	-6.52527e-90
0.4032 	-6.52411e-90
0.4039 	-6.52295e-90
0.4046 	-6.52179e-90
0.4053 	-3.78711e-89
0.406 	-2.53463e-90
0.4067 	-9.1403e-91
0.4074 	-9.13869e-91
0.4081 	-9.13708e-91
0.4088 	-9.13546e-91
0.4095 	-9.13385e-91
0.4102 	-1.09973e-89
0.4109 	-4.37862e-91
0.4116 	-1.14082e-91
0.4123 	-1.14062e-91
0.413 	-1.14042e-91
0.4137 	-1.14022e-91
0.4144 	-1.14002e-91
0.4151 	-2.16398e-90
0.4158 	-6.55863e-92
0.4165 	-1.28307e-92
0.4172 	-1.28284e-92
0.4179 	-1.28262e-92
0.4186 	-1.2824e-92
0.4193 	-1.28217e-92
0.42 	-3.43236e-91
0.4207 	-8.65791e-93
0.4214 	-1.31622e-93
0.4221 	-1.31599e-93
0.4228 	-1.31577e-93
0.4235 	-1.31554e-93
0.4242 	-1.31531e-93
0.4249 	-2.80747e-92
0.4256 	-1.02346e-93
0.4263 	-1.23936e-94
0.427 	-1.23915e-94
0.4277 	-1.23894e-94
0.4284 	-1.23873e-94
0.4291 	-1.23852e-94
0.4298 	-1.88716e-93
0.4305 	-1.09397e-94
0.4312 	-1.72982e-95
0.4319 	-1.0718e-95
0.4326 	-1.07162e-95
0.4333 	-1.07144e-95
0.434 	-1.07126e-95
0.4347 	-8.89843e-95
0.4354 	-1.06112e-95
0.4361 	-2.58011e-96
0.4368 	-8.59047e-97
0.4375 	-8.58903e-97
0.4382 	-8.58759e-97
0.4389 	-8.58614e-97
0.4396 	-8.5847e-97
0.4403 	-7.65055e-96
0.441 	-2.95375e-97
0.4417 	-6.37067e-98
0.4424 	-6.36961e-98
0.4431 	-6.36855e-98
0.4438 	-6.36749e-98
0.4445 	-6.36643e-98
0.4452 	-1.19642e-96
0.4459 	-2.8607e-98
0.4466 	-4.38962e-99
0.4473 	-4.38889e-99
0.448 	-4.38817e-99
0.4487 	-4.38745e-99
0.4494 	-4.38673e-99
0.4501 	-1.32217e-97
0.4508 	-2.44082e-99
0.4515 	-2.82323e-100
0.4522 	-2.82277e-100
0.4529 	-2.82231e-100
0.4536 	-2.82185e-100
0.4543 	-2.82139e-100
0.455 	-1.21774e-98
0.4557 	-1.87672e-100
0.4564 	-1.71561e-101
0.4571 	-1.71533e-101
0.4578 	-1.71506e-101
0.4585 	-1.71478e-101
0.4592 	-1.7145e-101
0.4599 	-5.98252e-100
0.4606 	-1.32904e-101
0.4613 	-9.92918e-103
0.462 	-9.9276e-103
0.4627 	-9.92601e-103
0.4634 	-9.92443e-103
0.4641 	-9.92285e-103
0.4648 	-2.48385e-101
0.4655 	-8.79363e-103
0.4662 	-1.10332e-103
0.4669 	-5.5394e-104
0.4676 	-5.53853e-104
0.4683 	-5.53766e-104
0.469 	-5.53679e-104
0.4697 	-7.58669e-103
0.4704 	-5.52544e-104
0.4711 	-1.21728e-104
0.4718 	-2.94071e-105
0.4725 	-2.94025e-105
0.4732 	-2.93979e-105
0.4739 	-2.93933e-105
0.4746 	-2.93887e-105
0.4753 	-4.32172e-104
0.476 	-9.67813e-106
0.4767 	-1.47581e-106
0.4774 	-1.47558e-106
0.4781 	-1.47535e-106
0.4788 	-1.47512e-106
0.4795 	-1.4749e-106
0.4802 	-4.5246e-105
0.4809 	-6.48509e-107
0.4816 	-6.98663e-108
0.4823 	-6.98556e-108
0.483 	-6.9845e-108
0.4837 	-6.98344e-108
0.4844 	-6.98237e-108
0.4851 	-3.43411e-106
0.4858 	-3.84776e-108
0.4865 	-3.12031e-109
0.4872 	-3.11984e-109
0.4879 	-3.11937e-109
0.4886 	-3.1189e-109
0.4893 	-3.11843e-109
0.49 	-2.20398e-107
0.4907 	-2.06868e-109
0.4914 	-1.31582e-110
0.4921 	-1.31562e-110
0.4928 	-1.31542e-110
0.4935 	-1.31523e-110
0.4942 	-1.31503e-110
0.4949 	-7.62913e-109
0.4956 	-1.02121e-110
0.4963 	-5.26173e-112
0.497 	-5.26096e-112
0.4977 	-5.26018e-112
0.4984 	-5.25941e-112
0.4991 	-5.25863e-112
0.4998 	-2.24287e-110
0.5005 	-4.68302e-112
0.5012 	-4.99387e-113
0.5019 	-2.00531e-113
0.5026 	-2.00502e-113
0.5033 	-2.00473e-113
0.504 	-2.00443e-113
0.5047 	-4.84619e-112
0.5054 	-4.13412e-113
0.5061 	-4.15749e-114
0.5068 	-7.30842e-115
0.5075 	-7.30737e-115
0.5082 	-7.30632e-115
0.5089 	-7.30527e-115
0.5096 	-1.69565e-114
0.5103 	-1.92079e-113
0.511 	-2.34177e-115
0.5117 	-2.54891e-116
0.5124 	-2.54855e-116
0.5131 	-2.54819e-116
0.5138 	-2.54783e-116
0.5145 	-2.54747e-116
0.5152 	-1.38651e-114
0.5159 	-1.10661e-116
0.5166 	-8.50573e-118
0.5173 	-8.50454e-118
0.518 	-8.50335e-118
0.5187 	-8.50215e-118
0.5194 	-8.50096e-118
0.5201 	-7.39294e-116
0.5208 	-4.66535e-118
0.5215 	-2.71711e-119
0.5222 	-2.71673e-119
0.5229 	-2.71635e-119
0.5236 	-2.71598e-119
0.5243 	-2.7156e-119
0.525 	-3.38063e-117
0.5257 	-1.80266e-119
0.5264 	-8.33687e-121
0.5271 	-8.33573e-121
0.5278 	-8.33458e-121
0.5285 	-8.33344e-121
0.5292 	-8.33229e-121
0.5299 	-8.49083e-119
0.5306 	-6.49409e-121
0.5313 	-2.4693e-122
0.532 	-2.46896e-122
0.5327 	-2.46863e-122
0.5334 	-2.46829e-122
0.5341 	-2.46796e-122
0.5348 	-1.84089e-120
0.5355 	-2.20989e-122
0.5362 	-2.1347e-123
0.5369 	-7.08605e-124
0.5376 	-7.08509e-124
0.5383 	-7.08413e-124
0.539 	-7.08317e-124
0.5397 	-3.00501e-122
0.5404 	-3.49932e-123
0.5411 	-1.42747e-124
0.5418 	-1.97467e-125
0.5425 	-1.97441e-125
0.5432 	-1.97414e-125
0.5439 	-1.97388e-125
0.5446 	-1.07543e-124
0.5453 	-8.96728e-124
0.546 	-6.25738e-126
0.5467 	-5.35024e-127
0.5474 	-5.34952e-127
0.5481 	-5.3488e-127
0.5488 	-5.34807e-127
0.5495 	-5.34735e-127
0.5502 	-4.8562e-125
0.5509 	-2.3152e-127
0.5516 	-1.41113e-128
0.5523 	-1.41094e-128
0.553 	-1.41075e-128
0.5537 	-1.41056e-128
0.5544 	-1.41037e-128
0.5551 	-1.99052e-126
0.5558 	-7.74659e-129
0.5565 	-3.62691e-130
0.5572 	-3.62641e-130
0.5579 	-3.62591e-130
0.5586 	-3.62541e-130
0.5593 	-3.62491e-130
0.56 	-7.1223e-128
0.5607 	-2.4139e-130
0.5614 	-9.09225e-132
0.5621 	-9.09097e-132
0.5628 	-9.0897e-132
0.5635 	-9.08843e-132
0.5642 	-9.08716e-132
0.5649 	-1.43022e-129
0.5656 	-7.11453e-132
0.5663 	-2.22515e-133
0.567 	-2.22483e-133
0.5677 	-2.22451e-133
0.5684 	-2.22419e-133
0.5691 	-2.22387e-133
0.5698 	-2.52194e-131
0.5705 	-2.00202e-133
0.5712 	-1.83122e-134
0.5719 	-5.31935e-135
0.5726 	-5.31856e-135
0.5733 	-5.31776e-135
0.574 	-5.31697e-135
0.5747 	-3.42519e-133
0.5754 	-5.05932e-134
0.5761 	-1.05741e-135
0.5768 	-1.24279e-136
0.5775 	-1.24259e-136
0.5782 	-1.2424e-136
0.5789 	-1.2422e-136
0.5796 	-1.27393e-135
0.5803 	-8.44668e-135
0.581 	-3.92183e-137
0.5817 	-2.83617e-138
0.5824 	-2.8357e-138
0.5831 	-2.83522e-138
0.5838 	-2.83475e-138
0.5845 	-2.83428e-138
0.5852 	-3.75424e-136
0.5859 	-1.22703e-138
0.5866 	-6.31795e-140
0.5873 	-6.31683e-140
0.588 	-6.3157e-140
0.5887 	-6.31457e-140
0.5894 	-6.31345e-140
0.5901 	-1.28674e-137
0.5908 	-3.47479e-140
0.5915 	-1.37345e-141
0.5922 	-1.37318e-141
0.5929 	-1.37292e-141
0.5936 	-1.37265e-141
0.5943 	-1.37239e-141
0.595 	-3.88674e-139
0.5957 	-9.16926e-142
0.5964 	-2.91493e-143
0.5971 	-2.91431e-143
0.5978 	-2.91369e-143
0.5985 	-2.91307e-143
0.5992 	-2.91244e-143
0.5999 	-6.66173e-141
0.6006 	-2.28961e-143
0.6013 	-6.0455e-145
0.602 	-6.04407e-145
0.6027 	-6.04263e-145
0.6034 	-6.04119e-145
0.6041 	-6.03976e-145
0.6048 	-1.00885e-142
0.6055 	-5.46246e-145
0.6062 	-4.78636e-146
0.6069 	-1.22619e-146
0.6076 	-1.22586e-146
0.6083 	-1.22553e-146
0.609 	-1.2252e-146
0.6097 	-1.18999e-144
0.6104 	-2.06336e-145
0.6111 	-2.41227e-147
0.6118 	-2.4354e-148
0.6125 	-2.43465e-148
0.6132 	-2.43389e-148
0.6139 	-2.43314e-148
0.6146 	-4.42257e-147
0.6153 	-2.51625e-146
0.616 	-7.65893e-149
0.6167 	-4.73811e-150
0.6174 	-4.73641e-150
0.6181 	-4.7347e-150
0.6188 	-4.73299e-150
0.6195 	-4.73129e-150
0.6202 	-9.47967e-148
0.6209 	-2.04884e-150
0.6216 	-9.03345e-152
0.6223 	-9.0296e-152
0.623 	-9.02576e-152
0.6237 	-9.02192e-152
0.6244 	-9.01808e-152
0.6251 	-2.78164e-149
0.6258 	-4.97277e-152
0.6265 	-1.68857e-153
0.6272 	-1.68771e-153
0.6279 	-1.68685e-153
0.6286 	-1.68599e-153
0.6293 	-1.68513e-153
0.63 	-7.2219e-151
0.6307 	-1.12903e-153
0.6314 	-3.09627e-155
0.6321 	-3.09437e-155
0.6328 	-3.09247e-155
0.6335 	-3.09056e-155
0.6342 	-3.08866e-155
0.6349 	-1.07108e-152
0.6356 	-2.43608e-155
0.6363 	-5.57283e-157
0.637 	-5.56865e-157
0.6377 	-5.56447e-157
0.6384 	-5.56029e-157
0.6391 	-5.55611e-157
0.6398 	-1.4093e-154
0.6405 	-5.04247e-157
0.6412 	-4.28105e-158
0.6419 	-9.84235e-159
0.6426 	-9.83327e-159
0.6433 	-9.82418e-159
0.644 	-9.8151e-159
0.6447 	-1.45695e-156
0.6454 	-2.81175e-157
0.6461 	-1.91881e-159
0.6468 	-1.70963e-160
0.6475 	-1.70768e-160
0.6482 	-1.70573e-160
0.6489 	-1.70377e-160
0.6496 	-5.20897e-159
0.6503 	-2.6751e-158
0.651 	-5.3506e-161
0.6517 	-2.9206e-162
0.6524 	-2.91646e-162
0.6531 	-2.91232e-162
0.6538 	-2.90819e-162
0.6545 	-2.90405e-162
0.6552 	-8.68442e-160
0.6559 	-1.25817e-162
0.6566 	-4.91111e-164
0.6573 	-4.90245e-164
0.658 	-4.89379e-164
0.6587 	-4.88513e-164
0.6594 	-4.87647e-164
0.6601 	-2.2156e-161
0.6608 	-2.69254e-164
0.6615 	-8.13693e-166
0.6622 	-8.11903e-166
0.6629 	-8.10114e-166
0.6636 	-8.08324e-166
0.6643 	-8.06534e-166
0.665 	-5.0235e-163
0.6657 	-5.41201e-166
0.6664 	-1.32986e-167
0.6671 	-1.32621e-167
0.6678 	-1.32255e-167
0.6685 	-1.3189e-167
0.6692 	-1.31525e-167
0.6699 	-6.54869e-165
0.6706 	-1.03871e-167
0.6713 	-2.14643e-169
0.672 	-2.13908e-169
0.6727 	-2.13173e-169
0.6734 	-2.12439e-169
0.6741 	-2.11704e-169
0.6748 	-7.60814e-167
0.6755 	-1.92264e-169
0.6762 	-1.60136e-170
0.6769 	-3.4107e-171
0.6776 	-3.39615e-171
0.6783 	-3.3816e-171
0.679 	-3.36705e-171
0.6797 	-6.99926e-169
0.6804 	-1.44176e-169
0.6811 	-6.54204e-172
0.6818 	-5.38177e-173
0.6825 	-5.35344e-173
0.6832 	-5.3251e-173
0.6839 	-5.29677e-173
0.6846 	-2.35569e-171
0.6853 	-1.1388e-170
0.686 	-1.65586e-173
0.6867 	-8.4124e-175
0.6874 	-8.35814e-175
0.6881 	-8.30388e-175
0.6888 	-8.24961e-175
0.6895 	-8.19535e-175
0.6902 	-3.27058e-172
0.6909 	-3.55046e-175
0.6916 	-1.304e-176
0.6923 	-1.29379e-176
0.693 	-1.28357e-176
0.6937 	-1.27335e-176
0.6944 	-1.26314e-176
0.6951 	-7.44593e-174
0.6958 	-7.05371e-177
0.6965 	-3.87015e-178
0.6972 	-3.85158e-178
0.6979 	-3.83301e-178
0.6986 	-3.81443e-178
0.6993 	-3.79586e-178
0.7 	-2.98286e-175
