0 	1
0.0007 	1
0.0014 	1
0.0021 	1
0.0028 	1
0.0035 	1
0.0042 	1
0.0049 	1
0.0056 	1
0.0063 	1
0.007 	1
0.0077 	1
0.0084 	1
0.0091 	1
0.0098 	1
0.0105 	1
0.0112 	1
0.0119 	1
0.0126 	1
0.0133 	1
0.014 	1
0.0147 	1
0.0154 	1
0.0161 	1
0.0168 	1
0.0175 	1
0.0182 	1
0.0189 	1
0.0196 	1
0.0203 	1
0.021 	1
0.0217 	1
0.0224 	1
0.0231 	1
0.0238 	1
0.0245 	1
0.0252 	1
0.0259 	1
0.0266 	1
0.0273 	1
0.028 	1
0.0287 	1
0.0294 	1
0.0301 	1
0.0308 	1
0.0315 	1
0.0322 	1
0.0329 	1
0.0336 	1
0.0343 	1
0.035 	1
0.0357 	1
0.0364 	1
0.0371 	1
0.0378 	1
0.0385 	1
0.0392 	1
0.0399 	1
0.0406 	1
0.0413 	1
0.042 	1
0.0427 	1
0.0434 	1
0.0441 	1
0.0448 	1
0.0455 	1
0.0462 	1
0.0469 	1
0.0476 	1
0.0483 	1
0.049 	1
0.0497 	1
0.0504 	1
0.0511 	1
0.0518 	1
0.0525 	1
0.0532 	1
0.0539 	1
0.0546 	1
0.0553 	1
0.056 	1
0.0567 	1
0.0574 	1
0.0581 	1
0.0588 	1
0.0595 	1
0.0602 	1
0.0609 	1
0.0616 	1
0.0623 	1
0.063 	1
0.0637 	1
0.0644 	1
0.0651 	1
0.0658 	1
0.0665 	1
0.0672 	1
0.0679 	1
0.0686 	1
0.0693 	1
0.07 	1
0.0707 	1
0.0714 	1
0.0721 	1
0.0728 	1
0.0735 	1
0.0742 	1
0.0749 	1
0.0756 	1
0.0763 	1
0.077 	1
0.0777 	1
0.0784 	1
0.0791 	1
0.0798 	1
0.0805 	1
0.0812 	1
0.0819 	1
0.0826 	1
0.0833 	1
0.084 	1
0.0847 	1
0.0854 	1
0.0861 	1
0.0868 	1
0.0875 	1
0.0882 	1
0.0889 	1
0.0896 	1
0.0903 	1
0.091 	1
0.0917 	1
0.0924 	1
0.0931 	1
0.0938 	1
0.0945 	1
0.0952 	1
0.0959 	1
0.0966 	1
0.0973 	1
0.098 	1
0.0987 	1
0.0994 	1
0.1001 	1
0.1008 	1
0.1015 	1
0.1022 	1
0.1029 	1
0.1036 	1
0.1043 	1
0.105 	1
0.1057 	1
0.1064 	1
0.1071 	1
0.1078 	1
0.1085 	1
0.1092 	1
0.1099 	1
0.1106 	1
0.1113 	1
0.112 	1
0.1127 	1
0.1134 	1
0.1141 	1
0.1148 	1
0.1155 	1
0.1162 	1
0.1169 	1
0.1176 	1
0.1183 	1
0.119 	1
0.1197 	1
0.1204 	1
0.1211 	1
0.1218 	1
0.1225 	1
0.1232 	1
0.1239 	1
0.1246 	1
0.1253 	1
0.126 	1
0.1267 	1
0.1274 	1
0.1281 	1
0.1288 	1
0.1295 	1
0.1302 	1
0.1309 	1
0.1316 	1
0.1323 	1
0.133 	1
0.1337 	1
0.1344 	1
0.1351 	1
0.1358 	1
0.1365 	1
0.1372 	1
0.1379 	1
0.1386 	1
0.1393 	1
0.14 	1
0.1407 	1
0.1414 	1
0.1421 	1
0.1428 	1
0.1435 	1
0.1442 	1
0.1449 	1
0.1456 	1
0.1463 	1
0.147 	1
0.1477 	1
0.1484 	1
0.1491 	1
0.1498 	1
0.1505 	1
0.1512 	1
0.1519 	1
0.1526 	1
0.1533 	1
0.154 	1
0.1547 	1
0.1554 	1
0.1561 	1
0.1568 	1
0.1575 	1
0.1582 	1
0.1589 	1
0.1596 	1
0.1603 	1
0.161 	1
0.1617 	1
0.1624 	1
0.1631 	1
0.1638 	1
0.1645 	1
0.1652 	1
0.1659 	1
0.1666 	1
0.1673 	1
0.168 	1
0.1687 	1
0.1694 	1
0.1701 	1
0.1708 	1
0.1715 	1
0.1722 	1
0.1729 	1
0.1736 	1
0.1743 	1
0.175 	1
0.1757 	1
0.1764 	1
0.1771 	1
0.1778 	1
0.1785 	1
0.1792 	1
0.1799 	1
0.1806 	1
0.1813 	1
0.182 	1
0.1827 	1
0.1834 	1
0.1841 	1
0.1848 	1
0.1855 	1
0.1862 	1
0.1869 	1
0.1876 	1
0.1883 	1
0.189 	1
0.1897 	1
0.1904 	1
0.1911 	1
0.1918 	1
0.1925 	1
0.1932 	1
0.1939 	1
0.1946 	1
0.1953 	1
0.196 	1
0.1967 	1
0.1974 	1
0.1981 	1
0.1988 	1
0.1995 	1
0.2002 	1
0.2009 	1
0.2016 	1
0.2023 	1
0.203 	1
0.2037 	1
0.2044 	1
0.2051 	1
0.2058 	1
0.2065 	1
0.2072 	1
0.2079 	1
0.2086 	1
0.2093 	1
0.21 	1
0.2107 	1
0.2114 	1
0.2121 	1
0.2128 	1
0.2135 	1
0.2142 	1
0.2149 	1
0.2156 	1
0.2163 	1
0.217 	1
0.2177 	1
0.2184 	1
0.2191 	1
0.2198 	1
0.2205 	1
0.2212 	1
0.2219 	1
0.2226 	1
0.2233 	0.999999
0.224 	0.999995
0.2247 	0.999991
0.2254 	0.999992
0.2261 	0.999995
0.2268 	0.999976
0.2275 	0.999952
0.2282 	0.999868
0.2289 	0.999471
0.2296 	0.999052
0.2303 	0.998912
0.231 	0.999143
0.2317 	0.998377
0.2324 	0.997058
0.2331 	0.995609
0.2338 	0.987835
0.2345 	0.978618
0.2352 	0.97199
0.2359 	0.97183
0.2366 	0.96388
0.2373 	0.94814
0.238 	0.9324
0.2387 	0.896737
0.2394 	0.843809
0.2401 	0.792404
0.2408 	0.756816
0.2415 	0.715844
0.2422 	0.665181
0.2429 	0.614519
0.2436 	0.558408
0.2443 	0.488473
0.245 	0.415305
0.2457 	0.336537
0.2464 	0.263355
0.2471 	0.210653
0.2478 	0.15795
0.2485 	0.118169
0.2492 	0.104082
0.2499 	0.0993091
0.2506 	0.0797787
0.2513 	0.0580816
0.252 	0.0401922
0.2527 	0.0223028
0.2534 	0.0105387
0.2541 	0.00836937
0.2548 	0.00825807
0.2555 	0.00692357
0.2562 	0.00509978
0.2569 	0.00355652
0.2576 	0.00203485
0.2583 	0.000883763
0.259 	0.000684291
0.2597 	0.00068
0.2604 	0.000591358
0.2611 	0.000439454
0.2618 	0.000307254
0.2625 	0.000180429
0.2632 	7.02762e-05
0.2639 	5.15844e-05
0.2646 	5.26953e-05
0.2653 	4.81665e-05
0.266 	3.6118e-05
0.2667 	2.52066e-05
0.2674 	1.49268e-05
0.2681 	4.81361e-06
0.2688 	3.31621e-06
0.2695 	3.47367e-06
0.2702 	3.35153e-06
0.2709 	2.5304e-06
0.2716 	1.76411e-06
0.2723 	1.05266e-06
0.273 	3.41212e-07
0.2737 	1.71724e-07
0.2744 	1.81768e-07
0.2751 	1.90714e-07
0.2758 	1.45557e-07
0.2765 	1.02161e-07
0.2772 	6.19347e-08
0.2779 	2.17088e-08
0.2786 	8.23394e-09
0.2793 	8.43001e-09
0.28 	9.69939e-09
0.2807 	7.4906e-09
0.2814 	5.3212e-09
0.2821 	3.29625e-09
0.2828 	1.27129e-09
0.2835 	3.64712e-10
0.2842 	3.5693e-10
0.2849 	4.16971e-10
0.2856 	3.44107e-10
0.2863 	2.49534e-10
0.287 	1.60704e-10
0.2877 	7.18745e-11
0.2884 	2.0413e-11
0.2891 	1.8387e-11
0.2898 	1.95878e-11
0.2905 	1.74446e-11
0.2912 	1.39638e-11
0.2919 	1.07331e-11
0.2926 	7.52172e-12
0.2933 	5.12878e-12
0.294 	4.70712e-12
0.2947 	4.46204e-12
0.2954 	4.15504e-12
0.2961 	3.8016e-12
0.2968 	3.49155e-12
0.2975 	3.19334e-12
0.2982 	2.90627e-12
0.2989 	2.68901e-12
0.2996 	2.51499e-12
0.3003 	2.29334e-12
0.301 	2.00816e-12
0.3017 	1.75219e-12
0.3024 	1.51244e-12
0.3031 	1.27452e-12
0.3038 	1.14e-12
0.3045 	1.04732e-12
0.3052 	9.36441e-13
0.3059 	7.80039e-13
0.3066 	6.41795e-13
0.3073 	5.21711e-13
0.308 	4.01628e-13
0.3087 	3.38053e-13
0.3094 	3.15971e-13
0.3101 	2.92299e-13
0.3108 	2.43664e-13
0.3115 	1.98963e-13
0.3122 	1.61347e-13
0.3129 	1.23731e-13
0.3136 	1.02838e-13
0.3143 	9.66144e-14
0.315 	9.27203e-14
0.3157 	7.67781e-14
0.3164 	6.1623e-14
0.3171 	4.93543e-14
0.3178 	3.70856e-14
0.3185 	2.96471e-14
0.3192 	2.79086e-14
0.3199 	2.74635e-14
0.3206 	2.30406e-14
0.3213 	1.80374e-14
0.322 	1.411e-14
0.3227 	1.01825e-14
0.3234 	7.54213e-15
0.3241 	7.07093e-15
0.3248 	7.1694e-15
0.3255 	6.1778e-15
0.3262 	4.75016e-15
0.3269 	3.603e-15
0.3276 	2.47741e-15
0.3283 	1.62282e-15
0.329 	1.49789e-15
0.3297 	1.56341e-15
0.3304 	1.39968e-15
0.3311 	1.064e-15
0.3318 	7.77735e-16
0.3325 	5.04941e-16
0.3332 	2.68849e-16
0.3339 	2.389e-16
0.3346 	2.57235e-16
0.3353 	2.42404e-16
0.336 	1.83353e-16
0.3367 	1.30282e-16
0.3374 	8.05329e-17
0.3381 	3.15173e-17
0.3388 	2.61272e-17
0.3395 	2.91359e-17
0.3402 	2.92578e-17
0.3409 	2.21628e-17
0.3416 	1.55117e-17
0.3423 	9.30446e-18
0.343 	3.09721e-18
0.3437 	1.81458e-18
0.3444 	2.03887e-18
0.3451 	2.20857e-18
0.3458 	1.6838e-18
0.3465 	1.17617e-18
0.3472 	6.99394e-19
0.3479 	2.22617e-19
0.3486 	7.07742e-20
0.3493 	7.45852e-20
0.35 	8.81885e-20
0.3507 	6.7922e-20
0.3514 	4.79112e-20
0.3521 	2.88381e-20
0.3528 	9.76487e-21
0.3535 	1.36824e-21
0.3542 	1.17446e-21
0.3549 	1.37636e-21
0.3556 	1.14215e-21
0.3563 	8.36427e-22
0.357 	5.45977e-22
0.3577 	2.55527e-22
0.3584 	8.40074e-23
0.3591 	6.87449e-23
0.3598 	6.12047e-23
0.3605 	5.28103e-23
0.3612 	4.40742e-23
0.3619 	3.70439e-23
0.3626 	3.01449e-23
0.3633 	2.40299e-23
0.364 	2.03981e-23
0.3647 	1.79682e-23
0.3654 	1.52901e-23
0.3661 	1.24256e-23
0.3668 	1.00556e-23
0.3675 	7.82056e-24
0.3682 	5.75979e-24
0.3689 	4.76131e-24
0.3696 	4.26702e-24
0.3703 	3.65792e-24
0.371 	2.89572e-24
0.3717 	2.2364e-24
0.3724 	1.63424e-24
0.3731 	1.03771e-24
0.3738 	8.07925e-25
0.3745 	7.29475e-25
0.3752 	6.3348e-25
0.3759 	4.93625e-25
0.3766 	3.68603e-25
0.3773 	2.58412e-25
0.378 	1.48222e-25
0.3787 	1.00522e-25
0.3794 	8.99778e-26
0.3801 	8.01798e-26
0.3808 	6.19229e-26
0.3815 	4.50166e-26
0.3822 	3.05415e-26
0.3829 	1.60665e-26
0.3836 	8.93759e-27
0.3843 	7.55616e-27
0.385 	6.99941e-27
0.3857 	5.38864e-27
0.3864 	3.84517e-27
0.3871 	2.54848e-27
0.3878 	1.25179e-27
0.3885 	5.17548e-28
0.3892 	3.85527e-28
0.3899 	3.67782e-28
0.3906 	2.91358e-28
0.3913 	2.0623e-28
0.392 	1.35067e-28
0.3927 	6.39039e-29
0.3934 	1.74636e-29
0.3941 	9.72643e-30
0.3948 	9.67027e-30
0.3955 	8.01593e-30
0.3962 	5.72231e-30
0.3969 	3.73943e-30
0.3976 	1.78047e-30
0.3983 	3.08329e-31
0.399 	9.21623e-32
0.3997 	9.67572e-32
0.4004 	8.54013e-32
0.4011 	6.20824e-32
0.4018 	4.08402e-32
0.4025 	2.01644e-32
0.4032 	2.31739e-33
0.4039 	1.91258e-34
0.4046 	2.08597e-34
0.4053 	1.96441e-34
0.406 	1.44956e-34
0.4067 	9.68584e-35
0.4074 	5.06424e-35
0.4081 	5.01716e-36
0.4088 	6.71691e-38
0.4095 	7.51153e-38
0.4102 	7.52058e-38
0.4109 	5.56567e-38
0.4116 	3.80226e-38
0.4123 	2.23038e-38
0.413 	6.58499e-39
0.4137 	1.91173e-39
0.4144 	2.47894e-39
0.4151 	3.06569e-39
0.4158 	2.10333e-39
0.4165 	1.47335e-39
0.4172 	1.44167e-39
0.4179 	1.40999e-39
0.4186 	9.47068e-40
0.4193 	1.05523e-39
0.42 	1.36298e-39
0.4207 	9.43746e-40
0.4214 	6.09768e-40
0.4221 	5.88414e-40
0.4228 	5.6706e-40
0.4235 	3.71339e-40
0.4242 	3.08264e-40
0.4249 	3.87477e-40
0.4256 	2.94727e-40
0.4263 	1.81422e-40
0.427 	1.73485e-40
0.4277 	1.65548e-40
0.4284 	1.18822e-40
0.4291 	8.00465e-41
0.4298 	9.81051e-41
0.4305 	8.07466e-41
0.4312 	4.92212e-41
0.4319 	4.46916e-41
0.4326 	4.22388e-41
0.4333 	3.26854e-41
0.434 	1.69226e-41
0.4347 	1.98892e-41
0.4354 	1.744e-41
0.4361 	1.0929e-41
0.4368 	9.05356e-42
0.4375 	8.44235e-42
0.4382 	7.05431e-42
0.4389 	2.74391e-42
0.4396 	3.0815e-42
0.4403 	2.83971e-42
0.441 	1.82541e-42
0.4417 	1.39069e-42
0.4424 	1.27798e-42
0.4431 	1.15496e-42
0.4438 	3.3726e-43
0.4445 	3.59572e-43
0.4452 	3.4204e-43
0.4459 	2.24897e-43
0.4466 	1.58656e-43
0.4473 	1.43319e-43
0.448 	1.27981e-43
0.4487 	3.71754e-44
0.4494 	3.00696e-44
0.4501 	2.88812e-44
0.4508 	1.93858e-44
0.4515 	1.27569e-44
0.4522 	1.12881e-44
0.4529 	9.81925e-45
0.4536 	3.47922e-45
0.4543 	1.65506e-45
0.455 	1.56029e-45
0.4557 	1.06878e-45
0.4564 	6.63054e-46
0.4571 	5.71904e-46
0.4578 	4.80753e-46
0.4585 	2.03208e-46
0.4592 	5.24134e-47
0.4599 	4.5672e-47
0.4606 	3.27063e-47
0.4613 	1.94738e-47
0.462 	1.62621e-47
0.4627 	1.30503e-47
0.4634 	6.37324e-48
0.4641 	7.67161e-49
0.4648 	6.1716e-49
0.4655 	4.48351e-49
0.4662 	2.72018e-49
0.4669 	2.11957e-49
0.4676 	1.60841e-49
0.4683 	8.66429e-50
0.469 	3.74328e-51
0.4697 	2.8569e-51
0.4704 	2.05379e-51
0.4711 	1.31314e-51
0.4718 	9.50574e-52
0.4725 	6.91123e-52
0.4732 	3.94676e-52
0.4739 	3.60155e-54
0.4746 	2.66825e-54
0.4753 	1.87552e-54
0.476 	1.27019e-54
0.4767 	8.77251e-55
0.4774 	6.02305e-55
0.4781 	3.26411e-55
0.4788 	3.4883e-58
0.4795 	2.65311e-58
0.4802 	1.88974e-58
0.4809 	1.30593e-58
0.4816 	8.82728e-59
0.4823 	6.2013e-59
0.483 	3.57533e-59
0.4837 	2.82703e-60
0.4844 	7.6945e-61
0.4851 	1.04906e-60
0.4858 	6.44574e-61
0.4865 	3.83836e-61
0.4872 	3.81847e-61
0.4879 	3.79857e-61
0.4886 	1.12381e-61
0.4893 	6.13179e-62
0.49 	9.65345e-62
0.4907 	6.11505e-62
0.4914 	3.33437e-62
0.4921 	3.33212e-62
0.4928 	3.32986e-62
0.4935 	1.36329e-62
0.4942 	2.67868e-63
0.4949 	4.35385e-63
0.4956 	3.14989e-63
0.4963 	1.58626e-63
0.497 	1.58512e-63
0.4977 	1.58399e-63
0.4984 	8.59291e-64
0.4991 	5.69568e-65
0.4998 	9.59882e-65
0.5005 	7.90913e-65
0.5012 	3.98232e-65
0.5019 	3.69897e-65
0.5026 	3.69592e-65
0.5033 	2.53414e-65
0.504 	3.80191e-67
0.5047 	6.44018e-67
0.5054 	6.04275e-67
0.5061 	3.36854e-67
0.5068 	2.78744e-67
0.5075 	2.77721e-67
0.5082 	2.38084e-67
0.5089 	4.41707e-68
0.5096 	5.91043e-68
0.5103 	5.93922e-68
0.511 	4.01524e-68
0.5117 	3.26623e-68
0.5124 	3.16999e-68
0.5131 	3.0634e-68
0.5138 	2.1975e-68
0.5145 	2.95477e-68
0.5152 	3.19138e-68
0.5159 	2.12633e-68
0.5166 	1.56582e-68
0.5173 	1.50987e-68
0.518 	1.45393e-68
0.5187 	8.46057e-69
0.5194 	1.05311e-68
0.5201 	1.23246e-68
0.5208 	8.30931e-69
0.5215 	5.64883e-69
0.5222 	5.42707e-69
0.5229 	5.2053e-69
0.5236 	3.125e-69
0.5243 	3.18427e-69
0.525 	4.01867e-69
0.5257 	2.72551e-69
0.5264 	1.69334e-69
0.5271 	1.61817e-69
0.5278 	1.54301e-69
0.5285 	9.6218e-70
0.5292 	7.61942e-70
0.5299 	9.74337e-70
0.5306 	7.17862e-70
0.5313 	4.05797e-70
0.532 	3.87001e-70
0.5327 	3.68205e-70
0.5334 	2.45277e-70
0.5341 	1.39318e-70
0.5348 	1.83016e-70
0.5355 	1.47651e-70
0.5362 	8.06606e-71
0.5369 	7.27129e-71
0.5376 	6.93074e-71
0.5383 	5.14428e-71
0.539 	2.08659e-71
0.5397 	2.90876e-71
0.5404 	2.61278e-71
0.5411 	1.47821e-71
0.5418 	1.20066e-71
0.5425 	1.15686e-71
0.5432 	9.83516e-72
0.5439 	3.08295e-72
0.5446 	4.06827e-72
0.5453 	4.09278e-72
0.546 	2.83621e-72
0.5467 	2.36032e-72
0.5474 	2.31816e-72
0.5481 	2.25738e-72
0.5488 	4.92113e-73
0.5495 	-1.30744e-72
0.5502 	-2.08257e-72
0.5509 	-2.96594e-73
0.5516 	5.79442e-73
0.5523 	5.45519e-73
0.553 	5.11595e-73
0.5537 	1.36688e-74
0.5544 	-3.48818e-72
0.5551 	-6.17735e-72
0.5558 	-2.63678e-72
0.5565 	-3.79797e-73
0.5572 	-4.33354e-73
0.5579 	-4.86911e-73
0.5586 	-6.65806e-73
0.5593 	-4.89231e-72
0.56 	-1.02097e-71
0.5607 	-5.04603e-72
0.5614 	-1.00064e-72
0.5621 	-1.05576e-72
0.5628 	-1.11088e-72
0.5635 	-1.25329e-72
0.5642 	-5.92252e-72
0.5649 	-1.30717e-71
0.5656 	-8.12679e-72
0.5663 	-1.66757e-72
0.567 	-1.72755e-72
0.5677 	-1.78754e-72
0.5684 	-1.9131e-72
0.5691 	-6.59577e-72
0.5698 	-1.57516e-71
0.5705 	-1.19564e-71
0.5712 	-2.98091e-72
0.5719 	-2.39494e-72
0.5726 	-2.45439e-72
0.5733 	-2.54981e-72
0.574 	-6.6859e-72
0.5747 	-1.79411e-71
0.5754 	-1.64349e-71
0.5761 	-5.35764e-72
0.5768 	-3.0297e-72
0.5775 	-3.08804e-72
0.5782 	-3.16283e-72
0.5789 	-6.14794e-72
0.5796 	-1.947e-71
0.5803 	-2.1446e-71
0.581 	-8.29396e-72
0.5817 	-3.63149e-72
0.5824 	-3.68559e-72
0.5831 	-3.74065e-72
0.5838 	-4.96478e-72
0.5845 	-2.01654e-71
0.5852 	-2.6723e-71
0.5859 	-1.1673e-71
0.5866 	-4.1708e-72
0.5873 	-4.21657e-72
0.588 	-4.26233e-72
0.5887 	-4.37481e-72
0.5894 	-1.99176e-71
0.5901 	-3.18838e-71
0.5908 	-1.5274e-71
0.5915 	-4.60806e-72
0.5922 	-4.64159e-72
0.5929 	-4.67512e-72
0.5936 	-4.74726e-72
0.5943 	-1.87247e-71
0.595 	-3.64903e-71
0.5957 	-1.88016e-71
0.5964 	-4.90721e-72
0.5971 	-4.92552e-72
0.5978 	-4.94383e-72
0.5985 	-4.97701e-72
0.5992 	-1.67017e-71
0.5999 	-3.49154e-71
0.6006 	-2.19297e-71
0.6013 	-5.0431e-72
0.602 	-5.04464e-72
0.6027 	-5.04619e-72
0.6034 	-5.04607e-72
0.6041 	-1.40631e-71
0.6048 	-3.20992e-71
0.6055 	-2.43534e-71
0.6062 	-6.29479e-72
0.6069 	-4.99078e-72
0.6076 	-4.97571e-72
0.6083 	-4.95119e-72
0.609 	-1.10854e-71
0.6097 	-2.83455e-71
0.6104 	-2.58398e-71
0.6111 	-8.50979e-72
0.6118 	-4.77263e-72
0.6125 	-4.74277e-72
0.6132 	-4.70429e-72
0.6139 	-8.05915e-72
0.6146 	-2.4031e-71
0.6153 	-2.62657e-71
0.616 	-1.01844e-71
0.6167 	-4.41428e-72
0.6174 	-4.37276e-72
0.6181 	-4.33051e-72
0.6188 	-5.24387e-72
0.6195 	-1.9544e-71
0.6202 	-2.56332e-71
0.6209 	-1.1195e-71
0.6216 	-3.95114e-72
0.6223 	-3.90189e-72
0.623 	-3.85265e-72
0.6237 	-3.72839e-72
0.6244 	-1.52292e-71
0.6251 	-2.40613e-71
0.6258 	-1.15113e-71
0.6265 	-3.42442e-72
0.6272 	-3.37161e-72
0.6279 	-3.3188e-72
0.6286 	-3.20011e-72
0.6293 	-1.13484e-71
0.63 	-2.1758e-71
0.6307 	-1.11901e-71
0.6314 	-2.87539e-72
0.6321 	-2.82282e-72
0.6328 	-2.77026e-72
0.6335 	-2.66591e-72
0.6342 	-8.06308e-72
0.6349 	-1.65373e-71
0.6356 	-1.0354e-71
0.6363 	-2.34038e-72
0.637 	-2.29114e-72
0.6377 	-2.2419e-72
0.6384 	-2.15661e-72
0.6391 	-5.43676e-72
0.6398 	-1.21285e-71
0.6405 	-9.16203e-72
0.6412 	-2.33228e-72
0.6419 	-1.80375e-72
0.6426 	-1.75997e-72
0.6433 	-1.69488e-72
0.644 	-3.45204e-72
0.6447 	-8.58082e-72
0.6454 	-7.77996e-72
0.6461 	-2.53188e-72
0.6468 	-1.37805e-72
0.6475 	-1.34089e-72
0.6482 	-1.29453e-72
0.6489 	-2.03576e-72
0.6496 	-5.85296e-72
0.6503 	-6.35599e-72
0.651 	-2.44009e-72
0.6517 	-1.02209e-72
0.6524 	-9.91845e-73
0.6531 	-9.61151e-73
0.6538 	-1.085e-72
0.6545 	-3.84467e-72
0.6552 	-5.00498e-72
0.6559 	-2.16689e-72
0.6566 	-7.35982e-73
0.6573 	-7.12282e-73
0.658 	-6.88582e-73
0.6587 	-6.32224e-73
0.6594 	-2.42671e-72
0.6601 	-3.80186e-72
0.6608 	-1.80453e-72
0.6615 	-5.14096e-73
0.6622 	-4.96139e-73
0.6629 	-4.78182e-73
0.6636 	-4.39802e-73
0.6643 	-1.46525e-72
0.665 	-2.78295e-72
0.6657 	-1.42059e-72
0.6664 	-3.47317e-73
0.6671 	-3.34093e-73
0.6678 	-3.20869e-73
0.6685 	-2.95722e-73
0.6692 	-8.38638e-73
0.6699 	-1.70192e-72
0.6706 	-1.05756e-72
0.6713 	-2.25206e-73
0.672 	-2.15694e-73
0.6727 	-2.06182e-73
0.6734 	-1.9031e-73
0.6741 	-4.46915e-73
0.6748 	-9.84163e-73
0.6755 	-7.37546e-73
0.6762 	-1.77382e-73
0.6769 	-1.31172e-73
0.6776 	-1.24501e-73
0.6783 	-1.14907e-73
0.679 	-2.14602e-73
0.6797 	-5.23599e-73
0.6804 	-4.70487e-73
0.6811 	-1.45793e-73
0.6818 	-7.27014e-74
0.6825 	-6.82321e-74
0.6832 	-6.28006e-74
0.6839 	-8.78415e-74
0.6846 	-2.44318e-73
0.6853 	-2.6239e-73
0.686 	-9.59207e-74
0.6867 	-3.47215e-74
0.6874 	-3.20072e-74
0.6881 	-2.9261e-74
0.6888 	-2.8013e-74
0.6895 	-9.23759e-74
0.6902 	-1.18407e-73
0.6909 	-4.86074e-74
0.6916 	-1.30272e-74
0.6923 	-1.1667e-74
0.693 	-1.03068e-74
0.6937 	-7.53362e-75
0.6944 	-2.46643e-74
0.6951 	-3.76947e-74
0.6958 	-1.68367e-74
0.6965 	-3.26086e-75
0.6972 	-2.79336e-75
0.6979 	-2.32587e-75
0.6986 	-1.49468e-75
0.6993 	-1.073e-75
0.7 	-8.00969e-76
