0 	1
0.0007 	1
0.0014 	1
0.0021 	1
0.0028 	1
0.0035 	1
0.0042 	1
0.0049 	1
0.0056 	1
0.0063 	1
0.007 	1
0.0077 	1
0.0084 	1
0.0091 	1
0.0098 	1
0.0105 	1
0.0112 	1
0.0119 	1
0.0126 	1
0.0133 	1
0.014 	1
0.0147 	1
0.0154 	1
0.0161 	1
0.0168 	1
0.0175 	1
0.0182 	1
0.0189 	1
0.0196 	1
0.0203 	1
0.021 	1
0.0217 	1
0.0224 	1
0.0231 	1
0.0238 	1
0.0245 	1
0.0252 	1
0.0259 	1
0.0266 	1
0.0273 	1
0.028 	1
0.0287 	1
0.0294 	1
0.0301 	1
0.0308 	1
0.0315 	1
0.0322 	1
0.0329 	1
0.0336 	1
0.0343 	1
0.035 	1
0.0357 	1
0.0364 	1
0.0371 	1
0.0378 	1
0.0385 	1
0.0392 	1
0.0399 	1
0.0406 	1
0.0413 	1
0.042 	1
0.0427 	1
0.0434 	1
0.0441 	1
0.0448 	1
0.0455 	1
0.0462 	1
0.0469 	1
0.0476 	1
0.0483 	1
0.049 	1
0.0497 	1
0.0504 	1
0.0511 	1
0.0518 	1
0.0525 	1
0.0532 	1
0.0539 	1
0.0546 	1
0.0553 	1
0.056 	1
0.0567 	1
0.0574 	1
0.0581 	1
0.0588 	1
0.0595 	1
0.0602 	1
0.0609 	1
0.0616 	1
0.0623 	1
0.063 	1
0.0637 	1
0.0644 	1
0.0651 	1
0.0658 	1
0.0665 	1
0.0672 	1
0.0679 	1
0.0686 	1
0.0693 	1
0.07 	1
0.0707 	1
0.0714 	1
0.0721 	1
0.0728 	1
0.0735 	1
0.0742 	1
0.0749 	1
0.0756 	1
0.0763 	1
0.077 	1
0.0777 	1
0.0784 	1
0.0791 	1
0.0798 	1
0.0805 	1
0.0812 	1
0.0819 	1
0.0826 	1
0.0833 	1
0.084 	1
0.0847 	1
0.0854 	1
0.0861 	1
0.0868 	1
0.0875 	1
0.0882 	1
0.0889 	1
0.0896 	1
0.0903 	1
0.091 	1
0.0917 	1
0.0924 	1
0.0931 	1
0.0938 	1
0.0945 	1
0.0952 	1
0.0959 	1
0.0966 	1
0.0973 	1
0.098 	1
0.0987 	1
0.0994 	1
0.1001 	1
0.1008 	1
0.1015 	1
0.1022 	1
0.1029 	1
0.1036 	1
0.1043 	1
0.105 	1
0.1057 	1
0.1064 	1
0.1071 	1
0.1078 	1
0.1085 	1
0.1092 	1
0.1099 	1
0.1106 	1
0.1113 	1
0.112 	1
0.1127 	1
0.1134 	1
0.1141 	1
0.1148 	1
0.1155 	1
0.1162 	1
0.1169 	1
0.1176 	1
0.1183 	1
0.119 	1
0.1197 	1
0.1204 	1
0.1211 	1
0.1218 	1
0.1225 	1
0.1232 	1
0.1239 	1
0.1246 	1
0.1253 	1
0.126 	1
0.1267 	1
0.1274 	1
0.1281 	1
0.1288 	1
0.1295 	1
0.1302 	1
0.1309 	1
0.1316 	1
0.1323 	1
0.133 	1
0.1337 	1
0.1344 	1
0.1351 	1
0.1358 	1
0.1365 	1
0.1372 	1
0.1379 	1
0.1386 	1
0.1393 	1
0.14 	1
0.1407 	1
0.1414 	1
0.1421 	1
0.1428 	1
0.1435 	1
0.1442 	1
0.1449 	1
0.1456 	1
0.1463 	1
0.147 	1
0.1477 	1
0.1484 	1
0.1491 	1
0.1498 	1
0.1505 	1
0.1512 	1
0.1519 	1
0.1526 	1
0.1533 	1
0.154 	1
0.1547 	1
0.1554 	1
0.1561 	1
0.1568 	1
0.1575 	1
0.1582 	1
0.1589 	1
0.1596 	1
0.1603 	1
0.161 	1
0.1617 	1
0.1624 	1
0.1631 	1
0.1638 	1
0.1645 	1
0.1652 	1
0.1659 	1
0.1666 	1
0.1673 	1
0.168 	1
0.1687 	1
0.1694 	1
0.1701 	1
0.1708 	1
0.1715 	1
0.1722 	1
0.1729 	1
0.1736 	1
0.1743 	1
0.175 	1
0.1757 	1
0.1764 	1
0.1771 	1
0.1778 	1
0.1785 	1
0.1792 	1
0.1799 	1
0.1806 	1
0.1813 	1
0.182 	1
0.1827 	1
0.1834 	1
0.1841 	1
0.1848 	1
0.1855 	1
0.1862 	1
0.1869 	1
0.1876 	1
0.1883 	1
0.189 	1
0.1897 	1
0.1904 	1
0.1911 	1
0.1918 	1
0.1925 	1
0.1932 	1
0.1939 	1
0.1946 	1
0.1953 	1
0.196 	1
0.1967 	1
0.1974 	1
0.1981 	1
0.1988 	1
0.1995 	1
0.2002 	1
0.2009 	1
0.2016 	1
0.2023 	1
0.203 	1
0.2037 	1
0.2044 	1
0.2051 	1
0.2058 	1
0.2065 	1
0.2072 	1
0.2079 	1
0.2086 	1
0.2093 	1
0.21 	1
0.2107 	1
0.2114 	1
0.2121 	1
0.2128 	1
0.2135 	1
0.2142 	1
0.2149 	1
0.2156 	1
0.2163 	1
0.217 	1
0.2177 	1
0.2184 	1
0.2191 	1
0.2198 	1
0.2205 	1
0.2212 	1
0.2219 	1
0.2226 	1
0.2233 	1
0.224 	1
0.2247 	1
0.2254 	1
0.2261 	1
0.2268 	1
0.2275 	1
0.2282 	1
0.2289 	1
0.2296 	1
0.2303 	1
0.231 	1
0.2317 	1
0.2324 	1
0.2331 	1
0.2338 	1
0.2345 	1
0.2352 	1
0.2359 	1
0.2366 	1
0.2373 	1
0.238 	1
0.2387 	1
0.2394 	1
0.2401 	1
0.2408 	1
0.2415 	1
0.2422 	1
0.2429 	1
0.2436 	1
0.2443 	1
0.245 	1
0.2457 	1
0.2464 	1
0.2471 	1
0.2478 	1
0.2485 	1
0.2492 	1
0.2499 	1
0.2506 	1
0.2513 	1
0.252 	1
0.2527 	1
0.2534 	1
0.2541 	1
0.2548 	1
0.2555 	1
0.2562 	1
0.2569 	1
0.2576 	1
0.2583 	1
0.259 	1
0.2597 	1
0.2604 	1
0.2611 	1
0.2618 	1
0.2625 	1
0.2632 	1
0.2639 	1
0.2646 	1
0.2653 	1
0.266 	1
0.2667 	1
0.2674 	1
0.2681 	1
0.2688 	1
0.2695 	1
0.2702 	1
0.2709 	1
0.2716 	1
0.2723 	0.999998
0.273 	0.999984
0.2737 	0.99997
0.2744 	0.999955
0.2751 	0.999944
0.2758 	0.999956
0.2765 	0.999938
0.2772 	0.999867
0.2779 	0.998929
0.2786 	0.997964
0.2793 	0.996935
0.28 	0.995887
0.2807 	0.996407
0.2814 	0.996258
0.2821 	0.993656
0.2828 	0.982074
0.2835 	0.968583
0.2842 	0.953086
0.2849 	0.936473
0.2856 	0.93276
0.2863 	0.929671
0.287 	0.906738
0.2877 	0.866871
0.2884 	0.819032
0.2891 	0.760506
0.2898 	0.691294
0.2905 	0.631345
0.2912 	0.575101
0.2919 	0.51944
0.2926 	0.464558
0.2933 	0.410314
0.294 	0.356294
0.2947 	0.302679
0.2954 	0.24178
0.2961 	0.175418
0.2968 	0.12521
0.2975 	0.0890788
0.2982 	0.0680453
0.2989 	0.0514179
0.2996 	0.0509458
0.3003 	0.0445697
0.301 	0.0303217
0.3017 	0.0177013
0.3024 	0.00831442
0.3031 	0.00607871
0.3038 	0.00402388
0.3045 	0.00432029
0.3052 	0.00414589
0.3059 	0.00279445
0.3066 	0.00152996
0.3073 	0.000456284
0.308 	0.000307316
0.3087 	0.000158348
0.3094 	0.000170977
0.3101 	0.00018404
0.3108 	0.000125136
0.3115 	6.81329e-05
0.3122 	1.45511e-05
0.3129 	7.62589e-06
0.3136 	2.83599e-06
0.3143 	2.23946e-06
0.315 	2.78653e-06
0.3157 	1.92453e-06
0.3164 	1.07325e-06
0.3171 	2.61277e-07
0.3178 	6.98263e-08
0.3185 	2.25116e-08
0.3192 	7.58327e-09
0.3199 	1.06469e-08
0.3206 	8.12064e-09
0.3213 	4.66693e-09
0.322 	1.26742e-09
0.3227 	9.63033e-11
0.3234 	3.88646e-11
0.3241 	1.17348e-11
0.3248 	1.49131e-11
0.3255 	1.37376e-11
0.3262 	1.08205e-11
0.3269 	7.85727e-12
0.3276 	6.47789e-12
0.3283 	6.5519e-12
0.329 	6.60925e-12
0.3297 	6.63663e-12
0.3304 	6.66858e-12
0.3311 	6.70396e-12
0.3318 	6.72206e-12
0.3325 	6.72554e-12
0.3332 	6.71268e-12
0.3339 	6.69513e-12
0.3346 	6.66036e-12
0.3353 	6.64256e-12
0.336 	6.64738e-12
0.3367 	6.64456e-12
0.3374 	6.62977e-12
0.3381 	6.58949e-12
0.3388 	6.54837e-12
0.3395 	6.4964e-12
0.3402 	6.46123e-12
0.3409 	6.46808e-12
0.3416 	6.46347e-12
0.3423 	6.44407e-12
0.343 	6.3902e-12
0.3437 	6.33632e-12
0.3444 	6.26142e-12
0.3451 	6.19692e-12
0.3458 	6.20455e-12
0.3465 	6.1991e-12
0.3472 	6.17012e-12
0.3479 	6.09313e-12
0.3486 	6.01325e-12
0.3493 	5.90485e-12
0.35 	5.78868e-12
0.3507 	5.78207e-12
0.3514 	5.76537e-12
0.3521 	5.71172e-12
0.3528 	5.60897e-12
0.3535 	5.49382e-12
0.3542 	5.34866e-12
0.3549 	5.18681e-12
0.3556 	5.12278e-12
0.3563 	5.07147e-12
0.357 	4.97373e-12
0.3577 	4.84071e-12
0.3584 	4.68901e-12
0.3591 	4.51241e-12
0.3598 	4.31092e-12
0.3605 	4.16455e-12
0.3612 	4.04023e-12
0.3619 	3.88732e-12
0.3626 	3.72469e-12
0.3633 	3.55483e-12
0.364 	3.37396e-12
0.3647 	3.17326e-12
0.3654 	2.96624e-12
0.3661 	2.75448e-12
0.3668 	2.55337e-12
0.3675 	2.37259e-12
0.3682 	2.2222e-12
0.3689 	2.07464e-12
0.3696 	1.93746e-12
0.3703 	1.75696e-12
0.371 	1.51869e-12
0.3717 	1.31143e-12
0.3724 	1.14165e-12
0.3731 	1.04366e-12
0.3738 	9.49076e-13
0.3745 	8.98832e-13
0.3752 	8.1468e-13
0.3759 	6.45762e-13
0.3766 	4.9755e-13
0.3773 	3.7637e-13
0.378 	3.32903e-13
0.3787 	2.89435e-13
0.3794 	2.84049e-13
0.3801 	2.71701e-13
0.3808 	2.00011e-13
0.3815 	1.34178e-13
0.3822 	7.8885e-14
0.3829 	6.39775e-14
0.3836 	5.20784e-14
0.3843 	5.2909e-14
0.385 	5.72111e-14
0.3857 	4.05653e-14
0.3864 	2.4522e-14
0.3871 	1.06877e-14
0.3878 	6.37952e-15
0.3885 	4.66378e-15
0.3892 	4.72102e-15
0.3899 	5.76323e-15
0.3906 	4.36526e-15
0.3913 	2.57209e-15
0.392 	9.28321e-16
0.3927 	2.7547e-16
0.3934 	1.76403e-16
0.3941 	1.54345e-16
0.3948 	2.09295e-16
0.3955 	1.76637e-16
0.3962 	1.08934e-16
0.3969 	4.34149e-17
0.3976 	9.53989e-18
0.3983 	7.52963e-18
0.399 	6.2563e-18
0.3997 	6.3094e-18
0.4004 	5.80894e-18
0.4011 	4.89331e-18
0.4018 	4.02445e-18
0.4025 	3.34021e-18
0.4032 	2.97181e-18
0.4039 	2.61566e-18
0.4046 	2.30446e-18
0.4053 	2.01834e-18
0.406 	1.76568e-18
0.4067 	1.54481e-18
0.4074 	1.34436e-18
0.4081 	1.15445e-18
0.4088 	9.68093e-19
0.4095 	8.27853e-19
0.4102 	6.91628e-19
0.4109 	5.65439e-19
0.4116 	4.55381e-19
0.4123 	3.63136e-19
0.413 	2.95756e-19
0.4137 	2.28377e-19
0.4144 	1.91171e-19
0.4151 	1.55825e-19
0.4158 	1.17705e-19
0.4165 	8.34215e-20
0.4172 	5.60422e-20
0.4179 	4.103e-20
0.4186 	2.711e-20
0.4193 	2.17055e-20
0.42 	1.86234e-20
0.4207 	1.33861e-20
0.4214 	8.41454e-21
0.4221 	4.41729e-21
0.4228 	2.53195e-21
0.4235 	1.26193e-21
0.4242 	8.00021e-22
0.4249 	7.87065e-22
0.4256 	5.84091e-22
0.4263 	3.51823e-22
0.427 	1.50447e-22
0.4277 	5.50092e-23
0.4284 	2.18054e-23
0.4291 	5.77466e-24
0.4298 	6.91661e-24
0.4305 	5.66636e-24
0.4312 	3.45924e-24
0.4319 	1.36774e-24
0.4326 	2.30284e-25
0.4333 	9.44292e-26
0.434 	7.79e-27
0.4347 	9.73771e-27
0.4354 	8.97404e-27
0.4361 	6.17682e-27
0.4368 	3.42527e-27
0.4375 	1.56983e-27
0.4382 	1.42137e-27
0.4389 	1.29171e-27
0.4396 	1.23098e-27
0.4403 	1.1489e-27
0.441 	1.03838e-27
0.4417 	9.39156e-28
0.4424 	8.55391e-28
0.4431 	8.09147e-28
0.4438 	7.6437e-28
0.4445 	7.38672e-28
0.4452 	7.00452e-28
0.4459 	6.30929e-28
0.4466 	5.69719e-28
0.4473 	5.18267e-28
0.448 	4.92954e-28
0.4487 	4.67641e-28
0.4494 	4.59538e-28
0.4501 	4.46284e-28
0.4508 	3.94178e-28
0.4515 	3.46677e-28
0.4522 	3.07467e-28
0.4529 	2.89328e-28
0.4536 	2.73323e-28
0.4543 	2.68585e-28
0.455 	2.66921e-28
0.4557 	2.28272e-28
0.4564 	1.91321e-28
0.4571 	1.60599e-28
0.4578 	1.45289e-28
0.4585 	1.34748e-28
0.4592 	1.29999e-28
0.4599 	1.28469e-28
0.4606 	1.07949e-28
0.4613 	8.45632e-29
0.462 	6.50613e-29
0.4627 	5.40798e-29
0.4634 	4.83345e-29
0.4641 	4.50011e-29
0.4648 	4.40795e-29
0.4655 	3.66003e-29
0.4662 	2.64981e-29
0.4669 	1.80057e-29
0.4676 	1.26216e-29
0.4683 	1.05347e-29
0.469 	9.15419e-30
0.4697 	9.04488e-30
0.4704 	7.60788e-30
0.4711 	5.17511e-30
0.4718 	3.04841e-30
0.4725 	1.54542e-30
0.4732 	1.13508e-30
0.4739 	8.18402e-31
0.4746 	8.45147e-31
0.4753 	7.52359e-31
0.476 	5.00196e-31
0.4767 	2.68911e-31
0.4774 	8.40873e-32
0.4781 	5.12063e-32
0.4788 	2.08639e-32
0.4795 	2.35204e-32
0.4802 	2.32245e-32
0.4809 	1.55475e-32
0.4816 	8.2283e-33
0.4823 	1.53285e-33
0.483 	8.39275e-34
0.4837 	1.45699e-34
0.4844 	1.20364e-34
0.4851 	1.36455e-34
0.4858 	9.27039e-35
0.4865 	5.00091e-35
0.4872 	9.21514e-36
0.4879 	2.9352e-36
0.4886 	5.65375e-37
0.4893 	7.71797e-38
0.49 	1.02145e-37
0.4907 	7.05106e-38
0.4914 	3.92283e-38
0.4921 	9.23679e-39
0.4928 	1.19787e-39
0.4935 	3.1796e-40
0.4942 	4.94844e-42
0.4949 	6.87663e-42
0.4956 	5.24538e-42
0.4963 	3.02866e-42
0.497 	9.13013e-43
0.4977 	6.35491e-44
0.4984 	2.37707e-44
0.4991 	4.64359e-45
0.4998 	6.16757e-45
0.5005 	5.5596e-45
0.5012 	4.09884e-45
0.5019 	3.83574e-45
0.5026 	3.73451e-45
0.5033 	3.71327e-45
0.504 	4.15792e-45
0.5047 	5.4412e-45
0.5054 	5.12684e-45
0.5061 	3.61425e-45
0.5068 	2.68063e-45
0.5075 	2.13959e-45
0.5082 	2.0932e-45
0.5089 	2.23253e-45
0.5096 	3.0528e-45
0.5103 	3.11025e-45
0.511 	2.15062e-45
0.5117 	1.3344e-45
0.5124 	7.24665e-46
0.5131 	7.017e-46
0.5138 	7.02203e-46
0.5145 	1.00779e-45
0.5152 	1.12633e-45
0.5159 	7.77261e-46
0.5166 	4.37447e-46
0.5173 	1.17826e-46
0.518 	1.11851e-46
0.5187 	1.05876e-46
0.5194 	1.56696e-46
0.5201 	1.95528e-46
0.5208 	1.36226e-46
0.5215 	7.57723e-47
0.5222 	1.32477e-47
0.5229 	5.88233e-48
0.5236 	5.35593e-48
0.5243 	7.69954e-48
0.525 	1.08259e-47
0.5257 	7.62657e-48
0.5264 	4.37692e-48
0.5271 	9.42698e-49
0.5278 	6.25163e-50
0.5285 	5.32373e-50
0.5292 	7.07404e-50
0.5299 	1.03122e-49
0.5306 	7.98614e-50
0.5313 	4.72425e-50
0.532 	1.35283e-50
0.5327 	9.00716e-53
0.5334 	6.96759e-53
0.5341 	8.01059e-53
0.5348 	1.21361e-52
0.5355 	1.03659e-52
0.5362 	6.23723e-53
0.5369 	2.19179e-53
0.5376 	1.77504e-56
0.5383 	1.2407e-56
0.539 	1.13214e-56
0.5397 	1.78998e-56
0.5404 	1.69589e-56
0.5411 	1.03786e-56
0.5418 	4.18127e-57
0.5425 	1.20756e-60
0.5432 	7.43023e-61
0.5439 	4.39201e-61
0.5446 	7.24662e-61
0.5453 	7.65408e-61
0.546 	4.79867e-61
0.5467 	2.12961e-61
0.5474 	4.35712e-65
0.5481 	2.44558e-65
0.5488 	7.0657e-66
0.5495 	1.21036e-65
0.5502 	1.42617e-65
0.5509 	9.22046e-66
0.5516 	4.42725e-66
0.5523 	1.41354e-69
0.553 	8.27932e-70
0.5537 	2.42325e-70
0.5544 	3.38595e-70
0.5551 	4.44799e-70
0.5558 	2.95905e-70
0.5565 	1.51721e-70
0.5572 	1.60163e-71
0.5579 	3.98375e-74
0.5586 	1.30045e-74
0.5593 	1.13718e-74
0.56 	1.66117e-74
0.5607 	1.13623e-74
0.5614 	6.18729e-75
0.5621 	1.28493e-75
0.5628 	2.69929e-78
0.5635 	1.26918e-78
0.5642 	-8.988e-77
0.5649 	-2.30873e-76
0.5656 	-1.30163e-76
0.5663 	7.65956e-79
0.567 	8.68231e-79
0.5677 	8.68771e-79
0.5684 	8.00036e-79
0.5691 	-1.00274e-76
0.5698 	-3.02351e-76
0.5705 	-2.15746e-76
0.5712 	-1.36673e-77
0.5719 	2.02586e-78
0.5726 	2.74687e-78
0.5733 	2.69525e-78
0.574 	-8.06959e-77
0.5747 	-3.14097e-76
0.5754 	-2.80753e-76
0.5761 	-4.73495e-77
0.5768 	6.87928e-78
0.5775 	1.05812e-77
0.5782 	1.05411e-77
0.5789 	-3.12869e-77
0.5796 	-2.26336e-76
0.5803 	-2.54197e-76
0.581 	-5.91412e-77
0.5817 	2.92478e-77
0.5824 	5.36013e-77
0.5831 	5.35732e-77
0.5838 	5.52298e-77
0.5845 	7.87861e-77
0.5852 	8.88909e-77
0.5859 	6.53668e-77
0.5866 	1.53833e-76
0.5873 	3.50244e-76
0.588 	3.50262e-76
0.5887 	3.50281e-76
0.5894 	9.1364e-76
0.5901 	1.34702e-75
0.5908 	7.40524e-76
0.5915 	8.27924e-76
0.5922 	2.16433e-75
0.5929 	2.32951e-75
0.5936 	2.32977e-75
0.5943 	4.05018e-75
0.595 	6.23971e-75
0.5957 	4.05131e-75
0.5964 	4.21122e-75
0.5971 	1.29815e-74
0.5978 	1.53245e-74
0.5985 	1.5326e-74
0.5992 	2.09901e-74
0.5999 	2.97999e-74
0.6006 	2.35121e-74
0.6013 	1.77853e-74
0.602 	5.20616e-74
0.6027 	6.61374e-74
0.6034 	6.6143e-74
0.6041 	8.14536e-74
0.6048 	1.12069e-73
0.6055 	9.89599e-74
0.6062 	6.83609e-74
0.6069 	1.39819e-73
0.6076 	1.83768e-73
0.6083 	1.83781e-73
0.609 	2.09722e-73
0.6097 	2.82331e-73
0.6104 	2.71976e-73
0.6111 	1.99398e-73
0.6118 	2.05202e-73
0.6125 	2.24167e-73
0.6132 	2.2418e-73
0.6139 	2.41514e-73
0.6146 	3.22363e-73
0.6153 	3.33919e-73
0.616 	2.53085e-73
0.6167 	1.70312e-73
0.6174 	9.97923e-74
0.6181 	9.97951e-74
0.6188 	1.02204e-73
0.6195 	1.35892e-73
0.6202 	1.5033e-73
0.6209 	1.16643e-73
0.6216 	7.1281e-74
0.6223 	1.51311e-74
0.623 	1.5131e-74
0.6237 	1.5131e-74
0.6244 	1.92502e-74
0.6251 	2.24195e-74
0.6258 	1.79881e-74
0.6265 	2.07323e-74
0.6272 	3.63925e-74
0.6279 	3.83987e-74
0.6286 	3.8403e-74
0.6293 	4.78919e-74
0.63 	5.99675e-74
0.6307 	4.79111e-74
0.6314 	4.46517e-74
0.6321 	7.36477e-74
0.6328 	8.15221e-74
0.6335 	8.15355e-74
0.6342 	9.85581e-74
0.6349 	1.2503e-73
0.6356 	1.0618e-73
0.6363 	8.20328e-74
0.637 	8.72212e-74
0.6377 	8.93845e-74
0.6384 	8.94055e-74
0.6391 	1.03867e-73
0.6398 	1.3277e-73
0.6405 	1.20443e-73
0.6412 	9.16247e-74
0.6419 	6.13139e-74
0.6426 	4.43435e-74
0.6433 	4.43508e-74
0.644 	4.91974e-74
0.6447 	6.27543e-74
0.6454 	6.08016e-74
0.6461 	4.72165e-74
0.6468 	2.45273e-74
0.6475 	6.87233e-75
0.6482 	6.85392e-75
0.6489 	7.05355e-75
0.6496 	8.05273e-75
0.6503 	8.14665e-75
0.651 	7.03355e-75
0.6517 	3.84763e-75
0.6524 	1.82418e-76
0.6531 	1.65218e-76
0.6538 	7.73511e-77
0.6545 	-9.2917e-76
0.6552 	-1.36581e-75
0.6559 	-3.77728e-76
0.6566 	7.03251e-77
0.6573 	-2.05415e-77
0.658 	-2.35379e-77
0.6587 	-2.65344e-77
0.6594 	-8.98163e-76
0.6601 	-1.56902e-75
0.6608 	-6.34385e-76
0.6615 	-3.48538e-77
0.6622 	-3.85177e-77
0.6629 	-3.94306e-77
0.6636 	-3.99296e-77
0.6643 	-6.82916e-76
0.665 	-1.50113e-75
0.6657 	-6.8333e-76
0.6664 	-4.09303e-77
0.6671 	-4.16456e-77
0.6678 	-4.17214e-77
0.6685 	-4.15559e-77
0.6692 	-4.85208e-76
0.6699 	-1.17543e-75
0.6706 	-6.81718e-76
0.6713 	-4.00107e-77
0.672 	-3.94766e-77
0.6727 	-3.901e-77
0.6734 	-3.85916e-77
0.6741 	-3.20127e-76
0.6748 	-8.83616e-76
0.6755 	-6.41179e-76
0.6762 	-7.6372e-77
0.6769 	-3.50671e-77
0.6776 	-3.42608e-77
0.6783 	-3.37464e-77
0.679 	-1.926e-76
0.6797 	-6.38316e-76
0.6804 	-5.73786e-76
0.6811 	-1.26573e-76
0.6818 	-2.97841e-77
0.6825 	-2.87705e-77
0.6832 	-2.82412e-77
0.6839 	-1.01143e-76
0.6846 	-4.43291e-76
0.6853 	-4.91532e-76
0.686 	-1.479e-76
0.6867 	-2.43846e-77
0.6874 	-2.32692e-77
0.6881 	-2.27706e-77
0.6888 	-4.05443e-77
0.6895 	-2.95858e-76
0.6902 	-4.04886e-76
0.6909 	-1.48202e-76
0.6916 	-1.92584e-77
0.6923 	-1.80638e-77
0.693 	-1.75809e-77
0.6937 	-1.7098e-77
0.6944 	-1.86499e-76
0.6951 	-3.16634e-76
0.6958 	-1.32759e-76
0.6965 	-1.38382e-77
0.6972 	-1.18342e-77
0.6979 	-1.09664e-77
0.6986 	-1.02713e-77
0.6993 	-8.02809e-78
0.7 	-5.36266e-78
