0 	1
0.0007 	1
0.0014 	1
0.0021 	1
0.0028 	1
0.0035 	1
0.0042 	1
0.0049 	1
0.0056 	1
0.0063 	1
0.007 	1
0.0077 	1
0.0084 	1
0.0091 	1
0.0098 	1
0.0105 	1
0.0112 	1
0.0119 	1
0.0126 	1
0.0133 	1
0.014 	1
0.0147 	1
0.0154 	1
0.0161 	1
0.0168 	1
0.0175 	1
0.0182 	1
0.0189 	1
0.0196 	1
0.0203 	1
0.021 	1
0.0217 	1
0.0224 	1
0.0231 	1
0.0238 	1
0.0245 	1
0.0252 	1
0.0259 	1
0.0266 	1
0.0273 	1
0.028 	1
0.0287 	1
0.0294 	1
0.0301 	1
0.0308 	1
0.0315 	1
0.0322 	1
0.0329 	1
0.0336 	1
0.0343 	1
0.035 	1
0.0357 	1
0.0364 	1
0.0371 	1
0.0378 	1
0.0385 	1
0.0392 	1
0.0399 	1
0.0406 	1
0.0413 	1
0.042 	1
0.0427 	1
0.0434 	1
0.0441 	1
0.0448 	1
0.0455 	1
0.0462 	1
0.0469 	1
0.0476 	1
0.0483 	1
0.049 	1
0.0497 	1
0.0504 	1
0.0511 	1
0.0518 	1
0.0525 	1
0.0532 	1
0.0539 	1
0.0546 	1
0.0553 	1
0.056 	1
0.0567 	1
0.0574 	1
0.0581 	1
0.0588 	1
0.0595 	1
0.0602 	1
0.0609 	1
0.0616 	1
0.0623 	1
0.063 	1
0.0637 	1
0.0644 	1
0.0651 	1
0.0658 	1
0.0665 	1
0.0672 	1
0.0679 	1
0.0686 	1
0.0693 	1
0.07 	1
0.0707 	1
0.0714 	1
0.0721 	1
0.0728 	1
0.0735 	1
0.0742 	1
0.0749 	1
0.0756 	1
0.0763 	1
0.077 	1
0.0777 	1
0.0784 	1
0.0791 	1
0.0798 	1
0.0805 	1
0.0812 	1
0.0819 	1
0.0826 	1
0.0833 	1
0.084 	1
0.0847 	1
0.0854 	1
0.0861 	1
0.0868 	1
0.0875 	1
0.0882 	1
0.0889 	1
0.0896 	1
0.0903 	1
0.091 	1
0.0917 	1
0.0924 	1
0.0931 	1
0.0938 	1
0.0945 	1
0.0952 	1
0.0959 	1
0.0966 	1
0.0973 	1
0.098 	1
0.0987 	1
0.0994 	1
0.1001 	1
0.1008 	1
0.1015 	1
0.1022 	1
0.1029 	1
0.1036 	1
0.1043 	1
0.105 	1
0.1057 	1
0.1064 	1
0.1071 	1
0.1078 	1
0.1085 	1
0.1092 	1
0.1099 	1
0.1106 	1
0.1113 	1
0.112 	1
0.1127 	1
0.1134 	1
0.1141 	1
0.1148 	1
0.1155 	1
0.1162 	1
0.1169 	1
0.1176 	1
0.1183 	1
0.119 	1
0.1197 	1
0.1204 	1
0.1211 	1
0.1218 	1
0.1225 	1
0.1232 	1
0.1239 	1
0.1246 	1
0.1253 	1
0.126 	1
0.1267 	1
0.1274 	1
0.1281 	1
0.1288 	1
0.1295 	1
0.1302 	1
0.1309 	1
0.1316 	1
0.1323 	1
0.133 	1
0.1337 	1
0.1344 	1
0.1351 	1
0.1358 	1
0.1365 	1
0.1372 	1
0.1379 	1
0.1386 	1
0.1393 	1
0.14 	1
0.1407 	1
0.1414 	1
0.1421 	1
0.1428 	1
0.1435 	1
0.1442 	1
0.1449 	1
0.1456 	1
0.1463 	1
0.147 	1
0.1477 	1
0.1484 	1
0.1491 	1
0.1498 	1
0.1505 	1
0.1512 	1
0.1519 	1
0.1526 	1
0.1533 	1
0.154 	1
0.1547 	1
0.1554 	1
0.1561 	1
0.1568 	1
0.1575 	1
0.1582 	1
0.1589 	1
0.1596 	1
0.1603 	1
0.161 	1
0.1617 	1
0.1624 	1
0.1631 	1
0.1638 	1
0.1645 	1
0.1652 	1
0.1659 	1
0.1666 	1
0.1673 	1
0.168 	1
0.1687 	1
0.1694 	1
0.1701 	1
0.1708 	1
0.1715 	1
0.1722 	1
0.1729 	1
0.1736 	1
0.1743 	1
0.175 	1
0.1757 	1
0.1764 	1
0.1771 	1
0.1778 	1
0.1785 	1
0.1792 	1
0.1799 	1
0.1806 	1
0.1813 	1
0.182 	1
0.1827 	1
0.1834 	1
0.1841 	1
0.1848 	1
0.1855 	1
0.1862 	1
0.1869 	1
0.1876 	1
0.1883 	1
0.189 	1
0.1897 	1
0.1904 	1
0.1911 	1
0.1918 	1
0.1925 	1
0.1932 	1
0.1939 	1
0.1946 	1
0.1953 	1
0.196 	1
0.1967 	1
0.1974 	1
0.1981 	1
0.1988 	1
0.1995 	1
0.2002 	1
0.2009 	1
0.2016 	1
0.2023 	1
0.203 	1
0.2037 	1
0.2044 	1
0.2051 	1
0.2058 	1
0.2065 	1
0.2072 	1
0.2079 	1
0.2086 	1
0.2093 	1
0.21 	1
0.2107 	1
0.2114 	1
0.2121 	1
0.2128 	1
0.2135 	1
0.2142 	1
0.2149 	1
0.2156 	1
0.2163 	1
0.217 	1
0.2177 	1
0.2184 	1
0.2191 	1
0.2198 	1
0.2205 	1
0.2212 	1
0.2219 	1
0.2226 	1
0.2233 	1
0.224 	1
0.2247 	0.999999
0.2254 	0.999999
0.2261 	0.999991
0.2268 	0.999944
0.2275 	0.999897
0.2282 	0.99985
0.2289 	0.999802
0.2296 	0.999674
0.2303 	0.999549
0.231 	0.999381
0.2317 	0.996343
0.2324 	0.993305
0.2331 	0.990267
0.2338 	0.987228
0.2345 	0.980975
0.2352 	0.973599
0.2359 	0.967019
0.2366 	0.938894
0.2373 	0.907854
0.238 	0.876815
0.2387 	0.845775
0.2394 	0.797607
0.2401 	0.735709
0.2408 	0.676446
0.2415 	0.613934
0.2422 	0.550274
0.2429 	0.486613
0.2436 	0.422952
0.2443 	0.357671
0.245 	0.289999
0.2457 	0.224053
0.2464 	0.17428
0.2471 	0.135465
0.2478 	0.0966493
0.2485 	0.057834
0.2492 	0.0278746
0.2499 	0.0230402
0.2506 	0.0179571
0.2513 	0.0136615
0.252 	0.0103653
0.2527 	0.00706914
0.2534 	0.00377297
0.2541 	0.000847086
0.2548 	0.000707837
0.2555 	0.000561376
0.2562 	0.000428387
0.2569 	0.000331612
0.2576 	0.000234841
0.2583 	0.00013807
0.259 	4.12996e-05
0.2597 	3.27626e-05
0.2604 	2.63009e-05
0.2611 	2.00185e-05
0.2618 	1.56585e-05
0.2625 	1.1299e-05
0.2632 	6.93938e-06
0.2639 	2.57981e-06
0.2646 	1.60252e-06
0.2653 	1.30301e-06
0.266 	9.90752e-07
0.2667 	7.8234e-07
0.2674 	5.73964e-07
0.2681 	3.65587e-07
0.2688 	1.57211e-07
0.2695 	8.2223e-08
0.2702 	6.75127e-08
0.2709 	5.18235e-08
0.2716 	4.07951e-08
0.2723 	3.03799e-08
0.273 	1.99647e-08
0.2737 	9.5495e-09
0.2744 	4.3893e-09
0.2751 	3.62463e-09
0.2758 	2.81067e-09
0.2765 	2.2028e-09
0.2772 	1.66698e-09
0.2779 	1.13117e-09
0.2786 	5.95351e-10
0.2793 	2.5747e-10
0.28 	2.15536e-10
0.2807 	1.71665e-10
0.2814 	1.36783e-10
0.2821 	1.07942e-10
0.2828 	7.91014e-11
0.2835 	5.02608e-11
0.2842 	2.78618e-11
0.2849 	2.40382e-11
0.2856 	2.0174e-11
0.2863 	1.6904e-11
0.287 	1.43528e-11
0.2877 	1.18016e-11
0.2884 	9.25033e-12
0.2891 	6.90261e-12
0.2898 	6.13333e-12
0.2905 	5.35153e-12
0.2912 	4.65079e-12
0.2919 	4.1387e-12
0.2926 	3.62669e-12
0.2933 	3.11469e-12
0.294 	2.60268e-12
0.2947 	2.39169e-12
0.2954 	2.17761e-12
0.2961 	1.96489e-12
0.2968 	1.80277e-12
0.2975 	1.64075e-12
0.2982 	1.47872e-12
0.2989 	1.3167e-12
0.2996 	1.21169e-12
0.3003 	1.11173e-12
0.301 	1.00332e-12
0.3017 	9.15757e-13
0.3024 	8.28323e-13
0.3031 	7.40888e-13
0.3038 	6.53454e-13
0.3045 	5.8645e-13
0.3052 	5.26497e-13
0.3059 	4.6062e-13
0.3066 	4.10171e-13
0.3073 	3.61784e-13
0.308 	3.13397e-13
0.3087 	2.6501e-13
0.3094 	2.28916e-13
0.3101 	2.02759e-13
0.3108 	1.73683e-13
0.3115 	1.51389e-13
0.3122 	1.31474e-13
0.3129 	1.1156e-13
0.3136 	9.16455e-14
0.3143 	7.61278e-14
0.315 	6.72622e-14
0.3157 	5.71801e-14
0.3164 	4.90954e-14
0.3171 	4.23551e-14
0.3178 	3.56149e-14
0.3185 	2.88746e-14
0.3192 	2.31304e-14
0.3199 	2.03007e-14
0.3206 	1.71418e-14
0.3213 	1.44428e-14
0.322 	1.236e-14
0.3227 	1.02772e-14
0.3234 	8.19435e-15
0.3241 	6.25302e-15
0.3248 	5.43931e-15
0.3255 	4.5509e-15
0.3262 	3.74216e-15
0.3269 	3.17311e-15
0.3276 	2.60435e-15
0.3283 	2.03559e-15
0.329 	1.46683e-15
0.3297 	1.25727e-15
0.3304 	1.04509e-15
0.3311 	8.37839e-16
0.3318 	7.05617e-16
0.3325 	5.73623e-16
0.3332 	4.41629e-16
0.3339 	3.09635e-16
0.3346 	2.52662e-16
0.3353 	2.09204e-16
0.336 	1.63203e-16
0.3367 	1.3675e-16
0.3374 	1.10381e-16
0.3381 	8.40118e-17
0.3388 	5.76427e-17
0.3395 	4.42428e-17
0.3402 	3.65637e-17
0.3409 	2.80599e-17
0.3416 	2.30441e-17
0.3423 	1.84801e-17
0.343 	1.39162e-17
0.3437 	9.35227e-18
0.3444 	6.64452e-18
0.3451 	5.49661e-18
0.3458 	4.17033e-18
0.3465 	3.3293e-18
0.3472 	2.65623e-18
0.3479 	1.98317e-18
0.3486 	1.3101e-18
0.3493 	8.46408e-19
0.35 	7.02706e-19
0.3507 	5.2743e-19
0.3514 	4.07197e-19
0.3521 	3.23592e-19
0.3528 	2.39987e-19
0.3535 	1.56382e-19
0.3542 	9.00041e-20
0.3549 	7.46654e-20
0.3556 	5.58928e-20
0.3563 	4.14699e-20
0.357 	3.28711e-20
0.3577 	2.42723e-20
0.3584 	1.56735e-20
0.3591 	7.86803e-21
0.3598 	6.53467e-21
0.3605 	4.89935e-21
0.3612 	3.47111e-21
0.3619 	2.75065e-21
0.3626 	2.03091e-21
0.3633 	1.31118e-21
0.364 	5.91444e-22
0.3647 	4.76723e-22
0.3654 	3.61777e-22
0.3661 	2.45056e-22
0.3668 	1.95647e-22
0.3675 	1.46397e-22
0.3682 	9.71458e-23
0.3689 	4.7895e-23
0.3696 	3.42132e-23
0.3703 	2.69257e-23
0.371 	1.81545e-23
0.3717 	1.49316e-23
0.3724 	1.17232e-23
0.3731 	8.51475e-24
0.3738 	5.30631e-24
0.3745 	3.86121e-24
0.3752 	3.1728e-24
0.3759 	2.29958e-24
0.3766 	1.90486e-24
0.3773 	1.56894e-24
0.378 	1.23301e-24
0.3787 	8.97084e-25
0.3794 	6.80116e-25
0.3801 	5.60438e-25
0.3808 	4.08307e-25
0.3815 	3.25532e-25
0.3822 	2.66031e-25
0.3829 	2.0653e-25
0.3836 	1.47028e-25
0.3843 	1.03837e-25
0.385 	8.57769e-26
0.3857 	6.0611e-26
0.3864 	4.52271e-26
0.3871 	3.62081e-26
0.3878 	2.71892e-26
0.3885 	1.81702e-26
0.3892 	1.09517e-26
0.3899 	9.12092e-27
0.3906 	6.44189e-27
0.3913 	4.50099e-27
0.392 	3.57982e-27
0.3927 	2.65866e-27
0.3934 	1.73749e-27
0.3941 	8.99803e-28
0.3948 	7.55848e-28
0.3955 	5.42554e-28
0.3962 	3.55279e-28
0.3969 	2.81845e-28
0.3976 	2.08432e-28
0.3983 	1.3502e-28
0.399 	6.16066e-29
0.3997 	5.02868e-29
0.4004 	3.68534e-29
0.4011 	2.22629e-29
0.4018 	1.75768e-29
0.4025 	1.28949e-29
0.4032 	8.21294e-30
0.4039 	3.53098e-30
0.4046 	2.38908e-30
0.4053 	1.81169e-30
0.406 	9.82884e-31
0.4067 	7.73143e-31
0.4074 	5.63756e-31
0.4081 	3.54369e-31
0.4088 	1.44982e-31
0.4095 	7.20877e-32
0.4102 	5.81508e-32
0.4109 	2.97203e-32
0.4116 	2.14525e-32
0.4123 	1.56078e-32
0.413 	9.76315e-33
0.4137 	3.91849e-33
0.4144 	1.18299e-33
0.4151 	1.07397e-33
0.4158 	5.22451e-34
0.4165 	3.1968e-34
0.4172 	2.33091e-34
0.4179 	1.46502e-34
0.4186 	5.99126e-35
0.4193 	7.80285e-36
0.42 	9.13224e-36
0.4207 	4.13994e-36
0.4214 	1.87804e-36
0.4221 	1.38006e-36
0.4228 	8.82071e-37
0.4235 	3.84087e-37
0.4242 	1.23945e-38
0.4249 	2.12797e-38
0.4256 	1.04687e-38
0.4263 	2.61577e-39
0.427 	1.94448e-39
0.4277 	1.27319e-39
0.4284 	6.01906e-40
0.4291 	2.54121e-42
0.4298 	8.74741e-42
0.4305 	5.39546e-42
0.4312 	4.9393e-43
0.4319 	3.71481e-43
0.4326 	2.49177e-43
0.4333 	1.26872e-43
0.434 	4.56813e-45
0.4347 	5.08433e-46
0.4354 	4.23702e-46
0.4361 	1.73724e-47
0.4368 	1.32041e-47
0.4375 	9.05251e-48
0.4382 	4.9009e-48
0.4389 	7.49289e-49
0.4396 	1.70432e-50
0.4403 	1.89037e-50
0.441 	7.92088e-52
0.4417 	6.08034e-52
0.4424 	4.25093e-52
0.4431 	2.42152e-52
0.4438 	5.92107e-53
0.4445 	7.63898e-55
0.4452 	1.12053e-54
0.4459 	1.49476e-55
0.4466 	3.71405e-56
0.4473 	2.64352e-56
0.448 	1.573e-56
0.4487 	5.0247e-57
0.4494 	6.33766e-59
0.4501 	9.34906e-59
0.4508 	3.06475e-59
0.4515 	1.24752e-59
0.4522 	9.06503e-60
0.4529 	5.6549e-60
0.4536 	2.24476e-60
0.4543 	1.55582e-61
0.455 	1.20954e-61
0.4557 	8.35135e-62
0.4564 	5.93131e-62
0.4571 	4.3602e-62
0.4578 	2.7891e-62
0.4585 	1.21799e-62
0.4592 	3.47585e-64
0.4599 	2.50891e-64
0.4606 	1.73296e-64
0.4613 	1.1924e-64
0.462 	8.86738e-65
0.4627 	5.81076e-65
0.4634 	2.75415e-65
0.4641 	1.94336e-67
0.4648 	1.43108e-67
0.4655 	9.63288e-68
0.4662 	6.09843e-68
0.4669 	4.58848e-68
0.4676 	3.07868e-68
0.4683 	1.56888e-68
0.469 	5.90727e-70
0.4697 	2.01834e-71
0.4704 	1.38322e-71
0.4711 	7.96684e-72
0.4718 	6.05981e-72
0.4725 	4.15304e-72
0.4732 	2.24627e-72
0.4739 	3.39506e-73
0.4746 	-2.61143e-74
0.4753 	-3.04189e-74
0.476 	-5.96988e-75
0.4767 	-6.3889e-75
0.4774 	-6.5687e-75
0.4781 	-6.7485e-75
0.4788 	-6.9283e-75
0.4795 	-2.55596e-74
0.4802 	-3.7321e-74
0.4809 	-9.88025e-75
0.4816 	-6.72503e-75
0.4823 	-6.72494e-75
0.483 	-6.72486e-75
0.4837 	-6.72478e-75
0.4844 	-2.08163e-74
0.4851 	-3.96672e-74
0.4858 	-1.32737e-74
0.4865 	-6.28228e-75
0.4872 	-6.28134e-75
0.4879 	-6.28041e-75
0.4886 	-6.27948e-75
0.4893 	-1.58834e-74
0.49 	-4.04422e-74
0.4907 	-1.58807e-74
0.4914 	-5.70519e-75
0.4921 	-5.70391e-75
0.4928 	-5.70262e-75
0.4935 	-5.70134e-75
0.4942 	-1.11928e-74
0.4949 	-3.33187e-74
0.4956 	-1.75117e-74
0.4963 	-5.0443e-75
0.497 	-5.04279e-75
0.4977 	-5.04127e-75
0.4984 	-5.03976e-75
0.4991 	-7.0791e-75
0.4998 	-2.64401e-74
0.5005 	-1.81399e-74
0.5012 	-4.47236e-75
0.5019 	-4.3469e-75
0.5026 	-4.34527e-75
0.5033 	-4.34364e-75
0.504 	-4.34202e-75
0.5047 	-2.023e-74
0.5054 	-1.78699e-74
0.5061 	-4.02789e-75
0.5068 	-3.6597e-75
0.5075 	-3.65807e-75
0.5082 	-3.65643e-75
0.5089 	-3.6548e-75
0.5096 	-1.4914e-74
0.5103 	-1.68746e-74
0.511 	-3.58935e-75
0.5117 	-3.01551e-75
0.5124 	-3.01395e-75
0.5131 	-3.01239e-75
0.5138 	-3.01083e-75
0.5145 	-1.05997e-74
0.5152 	-1.54034e-74
0.5159 	-4.18935e-75
0.5166 	-2.43756e-75
0.5173 	-2.43614e-75
0.518 	-2.43471e-75
0.5187 	-2.43328e-75
0.5194 	-7.28516e-75
0.5201 	-1.37733e-74
0.5208 	-4.68644e-75
0.5215 	-1.93797e-75
0.5222 	-1.93671e-75
0.5229 	-1.93545e-75
0.5236 	-1.93419e-75
0.5243 	-4.8093e-75
0.525 	-1.21567e-74
0.5257 	-4.80684e-75
0.5264 	-1.51921e-75
0.5271 	-1.51813e-75
0.5278 	-1.51704e-75
0.5285 	-1.51596e-75
0.5292 	-2.98382e-75
0.5299 	-8.89039e-75
0.5306 	-4.66967e-75
0.5313 	-1.17662e-75
0.532 	-1.1757e-75
0.5327 	-1.17479e-75
0.5334 	-1.17387e-75
0.5341 	-1.67403e-75
0.5348 	-6.4047e-75
0.5355 	-4.37608e-75
0.5362 	-9.50019e-76
0.5369 	-9.00483e-76
0.5376 	-8.99719e-76
0.5383 	-8.98955e-76
0.539 	-8.98191e-76
0.5397 	-4.54867e-75
0.5404 	-4.00645e-75
0.5411 	-7.98655e-76
0.5418 	-6.81908e-76
0.5425 	-6.81269e-76
0.5432 	-6.8063e-76
0.5439 	-6.79992e-76
0.5446 	-3.17008e-75
0.5453 	-3.6032e-75
0.546 	-6.62507e-76
0.5467 	-5.09752e-76
0.5474 	-5.09209e-76
0.5481 	-5.08666e-76
0.5488 	-5.08123e-76
0.5495 	-2.14527e-75
0.5502 	-3.1804e-75
0.5509 	-7.6344e-76
0.5516 	-3.75201e-76
0.5523 	-3.74725e-76
0.553 	-3.7425e-76
0.5537 	-3.73774e-76
0.5544 	-1.3875e-75
0.5551 	-2.74109e-75
0.5558 	-8.44929e-76
0.5565 	-2.71125e-76
0.5572 	-2.70693e-76
0.5579 	-2.70261e-76
0.5586 	-2.69829e-76
0.5593 	-8.39305e-76
0.56 	-2.29158e-75
0.5607 	-8.38359e-76
0.5614 	-1.91825e-76
0.5621 	-1.91423e-76
0.5628 	-1.91022e-76
0.5635 	-1.9062e-76
0.5642 	-4.59787e-76
0.5649 	-1.5393e-75
0.5656 	-7.67395e-76
0.5663 	-1.32613e-76
0.567 	-1.32239e-76
0.5677 	-1.31865e-76
0.5684 	-1.31492e-76
0.5691 	-2.14056e-76
0.5698 	-9.89212e-76
0.5705 	-6.56321e-76
0.5712 	-9.67738e-77
0.5719 	-8.91282e-77
0.5726 	-8.87888e-77
0.5733 	-8.84495e-77
0.574 	-8.81101e-77
0.5747 	-6.05938e-76
0.5754 	-5.28707e-76
0.5761 	-7.40812e-77
0.5768 	-5.85732e-77
0.5775 	-5.82785e-77
0.5782 	-5.79837e-77
0.5789 	-5.7689e-77
0.5796 	-3.52884e-76
0.5803 	-4.03881e-76
0.581 	-5.48085e-77
0.5817 	-3.75278e-77
0.5824 	-3.7286e-77
0.5831 	-3.70441e-77
0.5838 	-3.68022e-77
0.5845 	-1.94803e-76
0.5852 	-2.94398e-76
0.5859 	-6.09335e-77
0.5866 	-2.34449e-77
0.5873 	-2.32583e-77
0.588 	-2.30717e-77
0.5887 	-2.2885e-77
0.5894 	-1.01352e-76
0.5901 	-2.05899e-76
0.5908 	-5.89446e-77
0.5915 	-1.42878e-77
0.5922 	-1.41523e-77
0.5929 	-1.40168e-77
0.5936 	-1.38812e-77
0.5943 	-4.91092e-77
0.595 	-1.38796e-76
0.5957 	-4.87598e-77
0.5964 	-8.49954e-78
0.5971 	-8.40644e-78
0.5978 	-8.31335e-78
0.5985 	-8.22025e-78
0.5992 	-2.15985e-77
0.5999 	-7.51584e-77
0.6006 	-3.66998e-77
0.6013 	-4.9399e-78
0.602 	-4.87897e-78
0.6027 	-4.81804e-78
0.6034 	-4.75711e-78
0.6041 	-8.09089e-78
0.6048 	-3.93267e-77
0.6055 	-2.58321e-77
0.6062 	-3.11226e-78
0.6069 	-2.76934e-78
0.6076 	-2.73106e-78
0.6083 	-2.69277e-78
0.609 	-2.65449e-78
0.6097 	-1.98525e-77
0.6104 	-1.72553e-77
0.6111 	-2.08518e-78
0.6118 	-1.53854e-78
0.6125 	-1.51531e-78
0.6132 	-1.49207e-78
0.6139 	-1.46884e-78
0.6146 	-9.64048e-78
0.6153 	-1.10353e-77
0.616 	-1.33929e-78
0.6167 	-8.3716e-79
0.6174 	-8.23478e-79
0.6181 	-8.09797e-79
0.6188 	-7.96115e-79
0.6195 	-4.48166e-78
0.6202 	-6.79571e-78
0.6209 	-1.34228e-78
0.6216 	-4.4637e-79
0.6223 	-4.3853e-79
0.623 	-4.30689e-79
0.6237 	-4.22849e-79
0.6244 	-1.97844e-78
0.6251 	-4.04564e-78
0.6258 	-1.12957e-78
0.6265 	-2.33307e-79
0.6272 	-2.28926e-79
0.6279 	-2.24546e-79
0.6286 	-2.20166e-79
0.6293 	-8.17555e-79
0.63 	-2.33474e-78
0.6307 	-8.07441e-79
0.6314 	-1.19561e-79
0.6321 	-1.17171e-79
0.6328 	-1.14781e-79
0.6335 	-1.12392e-79
0.6342 	-3.07392e-79
0.6349 	-1.08547e-78
0.6356 	-5.25026e-79
0.6363 	-6.00638e-80
0.637 	-5.87894e-80
0.6377 	-5.75151e-80
0.6384 	-5.62408e-80
0.6391 	-9.82113e-80
0.6398 	-4.88865e-79
0.6405 	-3.19389e-79
0.6412 	-3.34586e-80
0.6419 	-2.8891e-80
0.6426 	-2.82261e-80
0.6433 	-2.75613e-80
0.644 	-2.68965e-80
0.6447 	-2.12441e-79
0.6454 	-1.84201e-79
0.6461 	-2.00007e-80
0.6468 	-1.38765e-80
0.6475 	-1.3537e-80
0.6482 	-1.31975e-80
0.6489 	-1.2858e-80
0.6496 	-8.84886e-80
0.6503 	-1.01271e-79
0.651 	-1.1322e-80
0.6517 	-6.486e-81
0.6524 	-6.31643e-81
0.6531 	-6.14686e-81
0.6538 	-5.9773e-81
0.6545 	-3.49464e-80
0.6552 	-5.30625e-80
0.6559 	-1.01765e-80
0.6566 	-2.92787e-81
0.6573 	-2.84525e-81
0.658 	-2.76262e-81
0.6587 	-2.68e-81
0.6594 	-1.28579e-80
0.6601 	-2.63447e-80
0.6608 	-7.25095e-81
0.6615 	-1.26119e-81
0.6622 	-1.22217e-81
0.6629 	-1.18315e-81
0.6636 	-1.14414e-81
0.6643 	-4.28595e-81
0.665 	-1.22499e-80
0.6657 	-4.20447e-81
0.6664 	-5.09428e-82
0.6671 	-4.91791e-82
0.6678 	-4.74155e-82
0.6685 	-4.56519e-82
0.6692 	-1.23587e-81
0.6699 	-4.34542e-81
0.6706 	-2.09393e-81
0.6713 	-1.88437e-82
0.672 	-1.80955e-82
0.6727 	-1.73474e-82
0.6734 	-1.65992e-82
0.6741 	-2.82406e-82
0.6748 	-1.37862e-81
0.6755 	-8.98689e-82
0.6762 	-7.59968e-83
0.6769 	-5.89808e-83
0.6776 	-5.60854e-83
0.6783 	-5.31899e-83
0.679 	-5.02944e-83
0.6797 	-3.76742e-82
0.6804 	-3.25764e-82
0.6811 	-3.15135e-83
0.6818 	-1.63301e-83
0.6825 	-1.53459e-83
0.6832 	-1.43618e-83
0.6839 	-1.33776e-83
0.6846 	-8.42374e-83
0.6853 	-9.58664e-83
0.686 	-1.05416e-83
0.6867 	-3.62386e-84
0.6874 	-3.3448e-84
0.6881 	-3.06574e-84
0.6888 	-2.78668e-84
0.6895 	-1.42813e-83
0.6902 	-2.14359e-83
0.6909 	-4.16209e-84
0.6916 	-5.89903e-85
0.6923 	-5.28635e-85
0.693 	-4.67368e-85
0.6937 	-4.061e-85
0.6944 	-1.6105e-84
0.6951 	-3.22801e-84
0.6958 	-8.96743e-85
0.6965 	-4.22165e-86
0.6972 	-3.31445e-86
0.6979 	-2.40725e-86
0.6986 	-1.50005e-86
0.6993 	-8.04842e-87
0.7 	-4.29176e-87
