0 	1
0.0007 	1
0.0014 	1
0.0021 	1
0.0028 	1
0.0035 	1
0.0042 	1
0.0049 	1
0.0056 	1
0.0063 	1
0.007 	1
0.0077 	1
0.0084 	1
0.0091 	1
0.0098 	1
0.0105 	1
0.0112 	1
0.0119 	1
0.0126 	1
0.0133 	1
0.014 	1
0.0147 	1
0.0154 	1
0.0161 	1
0.0168 	1
0.0175 	1
0.0182 	1
0.0189 	1
0.0196 	1
0.0203 	1
0.021 	1
0.0217 	1
0.0224 	1
0.0231 	1
0.0238 	1
0.0245 	1
0.0252 	1
0.0259 	1
0.0266 	1
0.0273 	1
0.028 	1
0.0287 	1
0.0294 	1
0.0301 	1
0.0308 	1
0.0315 	1
0.0322 	1
0.0329 	1
0.0336 	1
0.0343 	1
0.035 	1
0.0357 	1
0.0364 	1
0.0371 	1
0.0378 	1
0.0385 	1
0.0392 	1
0.0399 	1
0.0406 	1
0.0413 	1
0.042 	1
0.0427 	1
0.0434 	1
0.0441 	1
0.0448 	1
0.0455 	1
0.0462 	1
0.0469 	1
0.0476 	1
0.0483 	1
0.049 	1
0.0497 	1
0.0504 	1
0.0511 	1
0.0518 	1
0.0525 	1
0.0532 	1
0.0539 	1
0.0546 	1
0.0553 	1
0.056 	1
0.0567 	1
0.0574 	1
0.0581 	1
0.0588 	1
0.0595 	1
0.0602 	1
0.0609 	1
0.0616 	1
0.0623 	1
0.063 	1
0.0637 	1
0.0644 	1
0.0651 	1
0.0658 	1
0.0665 	1
0.0672 	1
0.0679 	1
0.0686 	1
0.0693 	1
0.07 	1
0.0707 	1
0.0714 	1
0.0721 	1
0.0728 	1
0.0735 	1
0.0742 	1
0.0749 	1
0.0756 	1
0.0763 	1
0.077 	1
0.0777 	1
0.0784 	1
0.0791 	1
0.0798 	1
0.0805 	1
0.0812 	1
0.0819 	1
0.0826 	1
0.0833 	1
0.084 	1
0.0847 	1
0.0854 	1
0.0861 	1
0.0868 	1
0.0875 	1
0.0882 	1
0.0889 	1
0.0896 	1
0.0903 	1
0.091 	1
0.0917 	1
0.0924 	1
0.0931 	1
0.0938 	1
0.0945 	1
0.0952 	1
0.0959 	1
0.0966 	1
0.0973 	1
0.098 	1
0.0987 	1
0.0994 	1
0.1001 	1
0.1008 	1
0.1015 	1
0.1022 	1
0.1029 	1
0.1036 	1
0.1043 	1
0.105 	1
0.1057 	1
0.1064 	1
0.1071 	1
0.1078 	1
0.1085 	1
0.1092 	1
0.1099 	1
0.1106 	1
0.1113 	1
0.112 	1
0.1127 	1
0.1134 	1
0.1141 	1
0.1148 	1
0.1155 	1
0.1162 	1
0.1169 	1
0.1176 	1
0.1183 	1
0.119 	1
0.1197 	1
0.1204 	1
0.1211 	1
0.1218 	1
0.1225 	1
0.1232 	1
0.1239 	1
0.1246 	1
0.1253 	1
0.126 	1
0.1267 	1
0.1274 	1
0.1281 	1
0.1288 	1
0.1295 	1
0.1302 	1
0.1309 	1
0.1316 	1
0.1323 	1
0.133 	1
0.1337 	1
0.1344 	1
0.1351 	1
0.1358 	1
0.1365 	1
0.1372 	1
0.1379 	1
0.1386 	1
0.1393 	1
0.14 	1
0.1407 	1
0.1414 	1
0.1421 	1
0.1428 	1
0.1435 	1
0.1442 	1
0.1449 	1
0.1456 	1
0.1463 	1
0.147 	1
0.1477 	1
0.1484 	1
0.1491 	1
0.1498 	1
0.1505 	1
0.1512 	1
0.1519 	1
0.1526 	1
0.1533 	1
0.154 	1
0.1547 	1
0.1554 	1
0.1561 	1
0.1568 	1
0.1575 	1
0.1582 	1
0.1589 	1
0.1596 	1
0.1603 	1
0.161 	1
0.1617 	1
0.1624 	1
0.1631 	1
0.1638 	1
0.1645 	1
0.1652 	1
0.1659 	1
0.1666 	1
0.1673 	1
0.168 	1
0.1687 	1
0.1694 	1
0.1701 	1
0.1708 	1
0.1715 	1
0.1722 	1
0.1729 	1
0.1736 	1
0.1743 	1
0.175 	1
0.1757 	1
0.1764 	1
0.1771 	1
0.1778 	1
0.1785 	1
0.1792 	1
0.1799 	1
0.1806 	1
0.1813 	1
0.182 	1
0.1827 	1
0.1834 	1
0.1841 	1
0.1848 	1
0.1855 	1
0.1862 	1
0.1869 	1
0.1876 	1
0.1883 	1
0.189 	1
0.1897 	1
0.1904 	1
0.1911 	1
0.1918 	1
0.1925 	1
0.1932 	1
0.1939 	1
0.1946 	1
0.1953 	1
0.196 	1
0.1967 	1
0.1974 	1
0.1981 	1
0.1988 	1
0.1995 	1
0.2002 	1
0.2009 	1
0.2016 	1
0.2023 	1
0.203 	1
0.2037 	1
0.2044 	1
0.2051 	1
0.2058 	1
0.2065 	1
0.2072 	1
0.2079 	1
0.2086 	1
0.2093 	1
0.21 	1
0.2107 	1
0.2114 	1
0.2121 	1
0.2128 	1
0.2135 	1
0.2142 	1
0.2149 	1
0.2156 	1
0.2163 	1
0.217 	1
0.2177 	1
0.2184 	1
0.2191 	1
0.2198 	1
0.2205 	1
0.2212 	1
0.2219 	1
0.2226 	1
0.2233 	1
0.224 	1
0.2247 	1
0.2254 	1
0.2261 	1
0.2268 	1
0.2275 	1
0.2282 	1
0.2289 	1
0.2296 	1
0.2303 	1
0.231 	1
0.2317 	1
0.2324 	1
0.2331 	1
0.2338 	1
0.2345 	1
0.2352 	1
0.2359 	1
0.2366 	1
0.2373 	1
0.238 	1
0.2387 	1
0.2394 	1
0.2401 	1
0.2408 	1
0.2415 	0.999999
0.2422 	0.999999
0.2429 	0.999999
0.2436 	0.999999
0.2443 	0.999998
0.245 	0.999998
0.2457 	0.999989
0.2464 	0.99997
0.2471 	0.999951
0.2478 	0.999931
0.2485 	0.999912
0.2492 	0.999893
0.2499 	0.999851
0.2506 	0.999414
0.2513 	0.998022
0.252 	0.99663
0.2527 	0.995238
0.2534 	0.993847
0.2541 	0.992455
0.2548 	0.990277
0.2555 	0.984261
0.2562 	0.964408
0.2569 	0.944554
0.2576 	0.9247
0.2583 	0.904846
0.259 	0.884992
0.2597 	0.861683
0.2604 	0.8175
0.2611 	0.757542
0.2618 	0.697583
0.2625 	0.637624
0.2632 	0.577665
0.2639 	0.517706
0.2646 	0.457747
0.2653 	0.377862
0.266 	0.324014
0.2667 	0.274256
0.2674 	0.224498
0.2681 	0.17474
0.2688 	0.124982
0.2695 	0.0752243
0.2702 	0.0582998
0.2709 	0.0485617
0.2716 	0.0399268
0.2723 	0.0312923
0.273 	0.0226578
0.2737 	0.0140232
0.2744 	0.00538872
0.2751 	0.00251469
0.2758 	0.00208363
0.2765 	0.00172123
0.2772 	0.00135884
0.2779 	0.000996444
0.2786 	0.000634051
0.2793 	0.000271659
0.28 	0.000101849
0.2807 	8.30479e-05
0.2814 	6.82908e-05
0.2821 	5.35377e-05
0.2828 	3.87847e-05
0.2835 	2.40316e-05
0.2842 	9.27854e-06
0.2849 	5.83343e-07
0.2856 	4.7734e-07
0.2863 	3.9405e-07
0.287 	3.10845e-07
0.2877 	2.27641e-07
0.2884 	1.44437e-07
0.2891 	6.12326e-08
0.2898 	3.79667e-10
0.2905 	3.13682e-10
0.2912 	2.60213e-10
0.2919 	2.06841e-10
0.2926 	1.53476e-10
0.2933 	1.00112e-10
0.294 	4.67471e-11
0.2947 	2.4783e-14
0.2954 	2.07687e-14
0.2961 	1.73144e-14
0.2968 	1.38649e-14
0.2975 	1.04167e-14
0.2982 	6.96846e-15
0.2989 	3.52025e-15
0.2996 	7.20456e-17
0.3003 	2.98066e-18
0.301 	2.47153e-18
0.3017 	1.99304e-18
0.3024 	1.5145e-18
0.3031 	1.03596e-18
0.3038 	5.57415e-19
0.3045 	7.88731e-20
0.3052 	2.63155e-22
0.3059 	2.16966e-22
0.3066 	1.76136e-22
0.3073 	1.3526e-22
0.308 	9.43839e-23
0.3087 	5.35077e-23
0.3094 	1.26315e-23
0.3101 	1.83661e-26
0.3108 	1.50707e-26
0.3115 	1.23146e-26
0.3122 	9.54936e-27
0.3129 	6.78411e-27
0.3136 	4.01886e-27
0.3143 	1.25361e-27
0.315 	1.24523e-30
0.3157 	1.01781e-30
0.3164 	8.36978e-31
0.3171 	6.54934e-31
0.3178 	4.72889e-31
0.3185 	2.90845e-31
0.3192 	1.08801e-31
0.3199 	8.00267e-35
0.3206 	6.57748e-35
0.3213 	5.44254e-35
0.322 	4.2948e-35
0.3227 	3.14707e-35
0.3234 	1.99933e-35
0.3241 	8.51594e-36
0.3248 	4.88545e-39
0.3255 	4.0394e-39
0.3262 	3.36204e-39
0.3269 	2.6746e-39
0.3276 	1.98639e-39
0.3283 	1.29818e-39
0.329 	6.09961e-40
0.3297 	2.82039e-43
0.3304 	2.34612e-43
0.3311 	1.96313e-43
0.3318 	1.5742e-43
0.3325 	1.18364e-43
0.3332 	7.93076e-44
0.3339 	4.02516e-44
0.3346 	1.1956e-45
0.3353 	1.29581e-47
0.336 	1.08115e-47
0.3367 	8.73607e-48
0.3374 	6.64357e-48
0.3381 	4.55106e-48
0.3388 	2.45855e-48
0.3395 	3.66046e-49
0.3402 	6.77428e-52
0.3409 	5.62691e-52
0.3416 	4.58035e-52
0.3423 	3.5199e-52
0.343 	2.45945e-52
0.3437 	1.399e-52
0.3444 	3.38551e-53
0.3451 	3.35122e-56
0.3458 	2.77238e-56
0.3465 	2.2727e-56
0.3472 	1.76354e-56
0.3479 	1.25437e-56
0.3486 	7.45203e-57
0.3493 	2.36036e-57
0.35 	1.57216e-60
0.3507 	1.29592e-60
0.3514 	1.06954e-60
0.3521 	8.37432e-61
0.3528 	6.05321e-61
0.3535 	3.73209e-61
0.3542 	1.41098e-61
0.3549 	6.94185e-65
0.3556 	5.76017e-65
0.3563 	4.78466e-65
0.357 	3.77783e-65
0.3577 	2.771e-65
0.3584 	1.76417e-65
0.3591 	7.57345e-66
0.3598 	2.92e-69
0.3605 	2.43997e-69
0.3612 	2.03817e-69
0.3619 	1.62276e-69
0.3626 	1.20629e-69
0.3633 	7.89831e-70
0.364 	3.73369e-70
0.3647 	1.17294e-73
0.3654 	9.87456e-74
0.3661 	8.28809e-74
0.3668 	6.65426e-74
0.3675 	5.0075e-74
0.3682 	3.36075e-74
0.3689 	1.714e-74
0.3696 	6.72462e-76
0.3703 	3.85362e-78
0.371 	3.22848e-78
0.3717 	2.61262e-78
0.3724 	1.98836e-78
0.3731 	1.3641e-78
0.3738 	7.3984e-79
0.3745 	1.15578e-79
0.3752 	1.4459e-82
0.3759 	1.20656e-82
0.3766 	9.83335e-83
0.3773 	7.55781e-83
0.378 	5.28226e-83
0.3787 	3.00671e-83
0.3794 	7.31169e-84
0.3801 	-2.36511e-85
0.3808 	-1.64767e-85
0.3815 	-1.48845e-85
0.3822 	-1.49669e-85
0.3829 	-1.50494e-85
0.3836 	-1.51318e-85
0.3843 	-1.52143e-85
0.385 	-2.16309e-85
0.3857 	-1.13298e-85
0.3864 	-4.81811e-86
0.3871 	-4.81889e-86
0.3878 	-4.81966e-86
0.3885 	-4.82044e-86
0.3892 	-4.82122e-86
0.3899 	-6.28347e-86
0.3906 	-3.84265e-86
0.3913 	-1.10464e-86
0.392 	-1.10482e-86
0.3927 	-1.105e-86
0.3934 	-1.10517e-86
0.3941 	-1.10535e-86
0.3948 	-1.31386e-86
0.3955 	-9.69916e-87
0.3962 	-2.58756e-87
0.3969 	-2.0799e-87
0.3976 	-2.08023e-87
0.3983 	-2.08055e-87
0.399 	-2.08088e-87
0.3997 	-2.23536e-87
0.4004 	-2.01322e-87
0.4011 	-6.32342e-88
0.4018 	-3.36481e-88
0.4025 	-3.36534e-88
0.4032 	-3.36586e-88
0.4039 	-3.36639e-88
0.4046 	-3.36692e-88
0.4053 	-3.6123e-88
0.406 	-1.29798e-88
0.4067 	-4.84057e-89
0.4074 	-4.84133e-89
0.4081 	-4.84208e-89
0.4088 	-4.84284e-89
0.4095 	-4.84359e-89
0.4102 	-5.7373e-89
0.4109 	-2.29613e-89
0.4116 	-6.34003e-90
0.4123 	-6.34102e-90
0.413 	-6.342e-90
0.4137 	-6.34298e-90
0.4144 	-6.34396e-90
0.4151 	-8.2212e-90
0.4158 	-3.58869e-90
0.4165 	-7.53972e-91
0.4172 	-7.54088e-91
0.4179 	-7.54204e-91
0.4186 	-7.54319e-91
0.4193 	-7.54435e-91
0.42 	-1.06155e-90
0.4207 	-4.98094e-91
0.4214 	-8.13977e-92
0.4221 	-8.14101e-92
0.4228 	-8.14225e-92
0.4235 	-8.14349e-92
0.4242 	-8.14474e-92
0.4249 	-1.05321e-91
0.4256 	-6.17004e-92
0.4263 	-8.06269e-93
0.427 	-8.06391e-93
0.4277 	-8.06513e-93
0.4284 	-8.06635e-93
0.4291 	-8.06757e-93
0.4298 	-9.515e-93
0.4305 	-6.9132e-93
0.4312 	-1.15159e-93
0.4319 	-7.40154e-94
0.4326 	-7.40266e-94
0.4333 	-7.40377e-94
0.434 	-7.40488e-94
0.4347 	-7.89329e-94
0.4354 	-7.09208e-94
0.4361 	-1.77661e-94
0.4368 	-6.37651e-95
0.4375 	-6.37746e-95
0.4382 	-6.37841e-95
0.4389 	-6.37936e-95
0.4396 	-6.38031e-95
0.4403 	-6.79299e-95
0.441 	-2.16222e-95
0.4417 	-5.20415e-96
0.4424 	-5.20492e-96
0.4431 	-5.20569e-96
0.4438 	-5.20646e-96
0.4445 	-5.20723e-96
0.4452 	-6.12124e-96
0.4459 	-2.28253e-96
0.4466 	-3.98097e-97
0.4473 	-3.98155e-97
0.448 	-3.98214e-97
0.4487 	-3.98272e-97
0.4494 	-3.98331e-97
0.4501 	-5.12314e-97
0.4508 	-2.14611e-97
0.4515 	-2.84628e-98
0.4522 	-2.84669e-98
0.4529 	-2.84711e-98
0.4536 	-2.84752e-98
0.4543 	-2.84794e-98
0.455 	-3.97732e-98
0.4557 	-1.82356e-98
0.4564 	-1.90705e-99
0.4571 	-1.90733e-99
0.4578 	-1.9076e-99
0.4585 	-1.90788e-99
0.4592 	-1.90815e-99
0.4599 	-2.44918e-99
0.4606 	-1.41736e-99
0.4613 	-1.20301e-100
0.462 	-1.20318e-100
0.4627 	-1.20336e-100
0.4634 	-1.20353e-100
0.4641 	-1.2037e-100
0.4648 	-1.40922e-100
0.4655 	-1.0184e-100
0.4662 	-1.35134e-101
0.4669 	-7.2053e-102
0.4676 	-7.20632e-102
0.4683 	-7.20734e-102
0.469 	-7.20836e-102
0.4697 	-7.62781e-102
0.4704 	-6.8469e-102
0.4711 	-1.54742e-102
0.4718 	-4.11863e-103
0.4725 	-4.11921e-103
0.4732 	-4.11979e-103
0.4739 	-4.12036e-103
0.4746 	-4.12094e-103
0.4753 	-4.35582e-103
0.476 	-1.30849e-103
0.4767 	-2.24746e-104
0.4774 	-2.24778e-104
0.4781 	-2.24809e-104
0.4788 	-2.2484e-104
0.4795 	-2.24871e-104
0.4802 	-2.62451e-104
0.4809 	-9.46214e-105
0.4816 	-1.16822e-105
0.4823 	-1.16838e-105
0.483 	-1.16854e-105
0.4837 	-1.1687e-105
0.4844 	-1.16886e-105
0.4851 	-1.49268e-105
0.4858 	-6.12952e-106
0.4865 	-5.76793e-107
0.4872 	-5.76871e-107
0.4879 	-5.76949e-107
0.4886 	-5.77028e-107
0.4893 	-5.77106e-107
0.49 	-8.00305e-107
0.4907 	-3.62661e-107
0.4914 	-2.69948e-108
0.4921 	-2.69984e-108
0.4928 	-2.7002e-108
0.4935 	-2.70056e-108
0.4942 	-2.70093e-108
0.4949 	-3.44262e-108
0.4956 	-1.97932e-108
0.4963 	-1.19741e-109
0.497 	-1.19757e-109
0.4977 	-1.19773e-109
0.4984 	-1.19788e-109
0.4991 	-1.19804e-109
0.4998 	-1.39294e-109
0.5005 	-1.00351e-109
0.5012 	-1.13945e-110
0.5019 	-5.04101e-111
0.5026 	-5.04167e-111
0.5033 	-5.04232e-111
0.504 	-5.04298e-111
0.5047 	-5.30004e-111
0.5054 	-4.75423e-111
0.5061 	-1.00517e-111
0.5068 	-2.01825e-112
0.5075 	-2.01851e-112
0.5082 	-2.01877e-112
0.5089 	-2.01902e-112
0.5096 	-2.01928e-112
0.5103 	-2.11999e-112
0.511 	-6.13653e-113
0.5117 	-7.70486e-114
0.5124 	-7.70584e-114
0.5131 	-7.70682e-114
0.5138 	-7.70779e-114
0.5145 	-7.70877e-114
0.5152 	-8.93705e-114
0.5159 	-3.15172e-114
0.5166 	-2.81469e-115
0.5173 	-2.81504e-115
0.518 	-2.81539e-115
0.5187 	-2.81574e-115
0.5194 	-2.81609e-115
0.5201 	-3.57253e-115
0.5208 	-1.4475e-115
0.5215 	-9.83851e-117
0.5222 	-9.83972e-117
0.5229 	-9.84093e-117
0.5236 	-9.84214e-117
0.5243 	-9.84335e-117
0.525 	-1.35613e-116
0.5257 	-6.09669e-117
0.5264 	-3.29372e-118
0.5271 	-3.29411e-118
0.5278 	-3.29451e-118
0.5285 	-3.29491e-118
0.5292 	-3.29531e-118
0.5299 	-4.17312e-118
0.5306 	-2.38879e-118
0.5313 	-1.05739e-119
0.532 	-1.05751e-119
0.5327 	-1.05764e-119
0.5334 	-1.05777e-119
0.5341 	-1.05789e-119
0.5348 	-1.22215e-119
0.5355 	-8.78668e-120
0.5362 	-8.90183e-121
0.5369 	-3.26183e-121
0.5376 	-3.26221e-121
0.5383 	-3.26259e-121
0.539 	-3.26297e-121
0.5397 	-3.40768e-121
0.5404 	-3.05535e-121
0.5411 	-6.18978e-122
0.5418 	-9.69068e-123
0.5425 	-9.6918e-123
0.5432 	-9.69291e-123
0.5439 	-9.69402e-123
0.5446 	-9.69513e-123
0.5453 	-1.01154e-122
0.546 	-2.86368e-123
0.5467 	-2.78085e-124
0.5474 	-2.78116e-124
0.5481 	-2.78147e-124
0.5488 	-2.78179e-124
0.5495 	-2.7821e-124
0.5502 	-3.2056e-124
0.5509 	-1.1162e-124
0.5516 	-7.73971e-126
0.5523 	-7.74056e-126
0.553 	-7.74141e-126
0.5537 	-7.74226e-126
0.5544 	-7.74311e-126
0.5551 	-9.76349e-126
0.5558 	-3.92637e-126
0.5565 	-2.08974e-127
0.5572 	-2.08996e-127
0.5579 	-2.09019e-127
0.5586 	-2.09041e-127
0.5593 	-2.09064e-127
0.56 	-2.86306e-127
0.5607 	-1.28154e-127
0.5614 	-5.483e-129
0.5621 	-5.48357e-129
0.5628 	-5.48414e-129
0.5635 	-5.4847e-129
0.5642 	-5.48527e-129
0.5649 	-6.90547e-129
0.5656 	-3.94349e-129
0.5663 	-1.40005e-130
0.567 	-1.40019e-130
0.5677 	-1.40033e-130
0.5684 	-1.40047e-130
0.5691 	-1.40061e-130
0.5698 	-1.60866e-130
0.5705 	-1.15531e-130
0.5712 	-1.09537e-131
0.5719 	-3.48426e-132
0.5726 	-3.4846e-132
0.5733 	-3.48493e-132
0.574 	-3.48526e-132
0.5747 	-3.61894e-132
0.5754 	-3.24401e-132
0.5761 	-6.42146e-133
0.5768 	-8.46085e-134
0.5775 	-8.46161e-134
0.5782 	-8.46237e-134
0.5789 	-8.46313e-134
0.5796 	-8.46389e-134
0.5803 	-8.78105e-134
0.581 	-2.45674e-134
0.5817 	-2.00753e-135
0.5824 	-2.00769e-135
0.5831 	-2.00786e-135
0.5838 	-2.00803e-135
0.5845 	-2.0082e-135
0.5852 	-2.30105e-135
0.5859 	-7.95842e-136
0.5866 	-4.66376e-137
0.5873 	-4.66412e-137
0.588 	-4.66448e-137
0.5887 	-4.66483e-137
0.5894 	-4.66519e-137
0.5901 	-5.8503e-137
0.5908 	-2.34332e-137
0.5915 	-1.06148e-138
0.5922 	-1.06155e-138
0.5929 	-1.06162e-138
0.5936 	-1.06169e-138
0.5943 	-1.06177e-138
0.595 	-1.44623e-138
0.5957 	-6.45821e-139
0.5964 	-2.36572e-140
0.5971 	-2.36585e-140
0.5978 	-2.36599e-140
0.5985 	-2.36613e-140
0.5992 	-2.36627e-140
0.5999 	-2.96313e-140
0.6006 	-1.68991e-140
0.6013 	-5.16342e-142
0.602 	-5.16366e-142
0.6027 	-5.1639e-142
0.6034 	-5.16414e-142
0.6041 	-5.16438e-142
0.6048 	-5.90056e-142
0.6055 	-4.235e-142
0.6062 	-3.8535e-143
0.6069 	-1.10378e-143
0.6076 	-1.10382e-143
0.6083 	-1.10386e-143
0.609 	-1.10389e-143
0.6097 	-1.14035e-143
0.6104 	-1.02206e-143
0.6111 	-1.99399e-144
0.6118 	-2.31135e-145
0.6125 	-2.31139e-145
0.6132 	-2.31143e-145
0.6139 	-2.31147e-145
0.6146 	-2.31151e-145
0.6153 	-2.38618e-145
0.616 	-6.6249e-146
0.6167 	-4.74323e-147
0.6174 	-4.74323e-147
0.6181 	-4.74322e-147
0.6188 	-4.74321e-147
0.6195 	-4.7432e-147
0.6202 	-5.4083e-147
0.6209 	-1.86194e-147
0.6216 	-9.54379e-149
0.6223 	-9.54356e-149
0.623 	-9.54333e-149
0.6237 	-9.54311e-149
0.6244 	-9.54288e-149
0.6251 	-1.19096e-148
0.6258 	-4.75668e-149
0.6265 	-1.88371e-150
0.6272 	-1.88362e-150
0.6279 	-1.88353e-150
0.6286 	-1.88343e-150
0.6293 	-1.88334e-150
0.63 	-2.55318e-150
0.6307 	-1.13813e-150
0.6314 	-3.64874e-152
0.6321 	-3.64844e-152
0.6328 	-3.64815e-152
0.6335 	-3.64785e-152
0.6342 	-3.64755e-152
0.6349 	-4.54643e-152
0.6356 	-2.59023e-152
0.6363 	-6.93857e-154
0.637 	-6.93775e-154
0.6377 	-6.93692e-154
0.6384 	-6.9361e-154
0.6391 	-6.93527e-154
0.6398 	-7.88775e-154
0.6405 	-5.65844e-154
0.6412 	-4.98176e-155
0.6419 	-1.29565e-155
0.6426 	-1.29544e-155
0.6433 	-1.29523e-155
0.644 	-1.29501e-155
0.6447 	-1.33177e-155
0.6454 	-1.19348e-155
0.6461 	-2.30209e-156
0.6468 	-2.3789e-157
0.6475 	-2.37837e-157
0.6482 	-2.37785e-157
0.6489 	-2.37733e-157
0.6496 	-2.37681e-157
0.6503 	-2.44328e-157
0.651 	-6.74302e-158
0.6517 	-4.29428e-159
0.6524 	-4.29304e-159
0.6531 	-4.29181e-159
0.6538 	-4.29058e-159
0.6545 	-4.28934e-159
0.6552 	-4.87068e-159
0.6559 	-1.67095e-159
0.6566 	-7.6228e-161
0.6573 	-7.61995e-161
0.658 	-7.61711e-161
0.6587 	-7.61426e-161
0.6594 	-7.61141e-161
0.6601 	-9.46076e-161
0.6608 	-3.77047e-161
0.6615 	-1.33146e-162
0.6622 	-1.33079e-162
0.6629 	-1.33013e-162
0.6636 	-1.32946e-162
0.6643 	-1.3288e-162
0.665 	-1.79423e-162
0.6657 	-7.98766e-163
0.6664 	-2.28975e-164
0.6671 	-2.28823e-164
0.6678 	-2.28671e-164
0.6685 	-2.28518e-164
0.6692 	-2.28366e-164
0.6699 	-2.83513e-164
0.6706 	-1.61405e-164
0.6713 	-3.87939e-166
0.672 	-3.87599e-166
0.6727 	-3.8726e-166
0.6734 	-3.86921e-166
0.6741 	-3.86582e-166
0.6748 	-4.37913e-166
0.6755 	-3.14031e-166
0.6762 	-2.69819e-167
0.6769 	-6.4715e-168
0.6776 	-6.46419e-168
0.6783 	-6.45687e-168
0.679 	-6.44955e-168
0.6797 	-6.60538e-168
0.6804 	-5.91891e-168
0.6811 	-1.13236e-168
0.6818 	-1.06552e-169
0.6825 	-1.06399e-169
0.6832 	-1.06247e-169
0.6839 	-1.06094e-169
0.6846 	-1.05941e-169
0.6853 	-1.0857e-169
0.686 	-2.98364e-170
0.6867 	-1.7306e-171
0.6874 	-1.72752e-171
0.6881 	-1.72443e-171
0.6888 	-1.72135e-171
0.6895 	-1.71826e-171
0.6902 	-1.94515e-171
0.6909 	-6.65682e-172
0.6916 	-2.77356e-173
0.6923 	-2.76751e-173
0.693 	-2.76145e-173
0.6937 	-2.7554e-173
0.6944 	-2.74935e-173
0.6951 	-3.40668e-173
0.6958 	-1.3334e-173
0.6965 	-5.35637e-177
0.6972 	-4.20229e-177
0.6979 	-3.04821e-177
0.6986 	-1.89413e-177
0.6993 	-7.40054e-178
0.7 	-1.17912e-178
