0 	1
0.0007 	1
0.0014 	1
0.0021 	1
0.0028 	1
0.0035 	1
0.0042 	1
0.0049 	1
0.0056 	1
0.0063 	1
0.007 	1
0.0077 	1
0.0084 	1
0.0091 	1
0.0098 	1
0.0105 	1
0.0112 	1
0.0119 	1
0.0126 	1
0.0133 	1
0.014 	1
0.0147 	1
0.0154 	1
0.0161 	1
0.0168 	1
0.0175 	1
0.0182 	1
0.0189 	1
0.0196 	1
0.0203 	1
0.021 	1
0.0217 	1
0.0224 	1
0.0231 	1
0.0238 	1
0.0245 	1
0.0252 	1
0.0259 	1
0.0266 	1
0.0273 	1
0.028 	1
0.0287 	1
0.0294 	1
0.0301 	1
0.0308 	1
0.0315 	1
0.0322 	1
0.0329 	1
0.0336 	1
0.0343 	1
0.035 	1
0.0357 	1
0.0364 	1
0.0371 	1
0.0378 	1
0.0385 	1
0.0392 	1
0.0399 	1
0.0406 	1
0.0413 	1
0.042 	1
0.0427 	1
0.0434 	1
0.0441 	1
0.0448 	1
0.0455 	1
0.0462 	1
0.0469 	1
0.0476 	1
0.0483 	1
0.049 	1
0.0497 	1
0.0504 	1
0.0511 	1
0.0518 	1
0.0525 	1
0.0532 	1
0.0539 	1
0.0546 	1
0.0553 	1
0.056 	1
0.0567 	1
0.0574 	1
0.0581 	1
0.0588 	1
0.0595 	1
0.0602 	1
0.0609 	1
0.0616 	1
0.0623 	1
0.063 	1
0.0637 	1
0.0644 	1
0.0651 	1
0.0658 	1
0.0665 	1
0.0672 	1
0.0679 	1
0.0686 	1
0.0693 	1
0.07 	1
0.0707 	1
0.0714 	1
0.0721 	1
0.0728 	1
0.0735 	1
0.0742 	1
0.0749 	1
0.0756 	1
0.0763 	1
0.077 	1
0.0777 	1
0.0784 	1
0.0791 	1
0.0798 	1
0.0805 	1
0.0812 	1
0.0819 	1
0.0826 	1
0.0833 	1
0.084 	1
0.0847 	1
0.0854 	1
0.0861 	1
0.0868 	1
0.0875 	1
0.0882 	1
0.0889 	1
0.0896 	1
0.0903 	1
0.091 	1
0.0917 	1
0.0924 	1
0.0931 	1
0.0938 	1
0.0945 	1
0.0952 	1
0.0959 	1
0.0966 	1
0.0973 	1
0.098 	1
0.0987 	1
0.0994 	1
0.1001 	1
0.1008 	1
0.1015 	1
0.1022 	1
0.1029 	1
0.1036 	1
0.1043 	1
0.105 	1
0.1057 	1
0.1064 	1
0.1071 	1
0.1078 	1
0.1085 	1
0.1092 	1
0.1099 	1
0.1106 	1
0.1113 	1
0.112 	1
0.1127 	1
0.1134 	1
0.1141 	1
0.1148 	1
0.1155 	1
0.1162 	1
0.1169 	1
0.1176 	1
0.1183 	1
0.119 	1
0.1197 	1
0.1204 	1
0.1211 	1
0.1218 	1
0.1225 	1
0.1232 	1
0.1239 	1
0.1246 	1
0.1253 	1
0.126 	1
0.1267 	1
0.1274 	1
0.1281 	1
0.1288 	1
0.1295 	1
0.1302 	1
0.1309 	1
0.1316 	1
0.1323 	1
0.133 	1
0.1337 	1
0.1344 	1
0.1351 	1
0.1358 	1
0.1365 	1
0.1372 	1
0.1379 	1
0.1386 	1
0.1393 	1
0.14 	1
0.1407 	1
0.1414 	1
0.1421 	1
0.1428 	1
0.1435 	1
0.1442 	1
0.1449 	1
0.1456 	1
0.1463 	1
0.147 	1
0.1477 	1
0.1484 	1
0.1491 	1
0.1498 	1
0.1505 	1
0.1512 	1
0.1519 	1
0.1526 	1
0.1533 	1
0.154 	1
0.1547 	1
0.1554 	1
0.1561 	1
0.1568 	1
0.1575 	1
0.1582 	1
0.1589 	1
0.1596 	1
0.1603 	1
0.161 	1
0.1617 	1
0.1624 	1
0.1631 	1
0.1638 	1
0.1645 	1
0.1652 	1
0.1659 	1
0.1666 	1
0.1673 	1
0.168 	1
0.1687 	1
0.1694 	1
0.1701 	1
0.1708 	1
0.1715 	1
0.1722 	1
0.1729 	1
0.1736 	1
0.1743 	1
0.175 	1
0.1757 	1
0.1764 	1
0.1771 	1
0.1778 	1
0.1785 	1
0.1792 	1
0.1799 	1
0.1806 	1
0.1813 	1
0.182 	1
0.1827 	1
0.1834 	1
0.1841 	1
0.1848 	1
0.1855 	1
0.1862 	1
0.1869 	1
0.1876 	1
0.1883 	1
0.189 	1
0.1897 	1
0.1904 	1
0.1911 	1
0.1918 	1
0.1925 	1
0.1932 	1
0.1939 	1
0.1946 	1
0.1953 	1
0.196 	1
0.1967 	1
0.1974 	1
0.1981 	1
0.1988 	1
0.1995 	1
0.2002 	1
0.2009 	1
0.2016 	1
0.2023 	1
0.203 	1
0.2037 	1
0.2044 	1
0.2051 	1
0.2058 	1
0.2065 	1
0.2072 	1
0.2079 	1
0.2086 	1
0.2093 	1
0.21 	1
0.2107 	1
0.2114 	1
0.2121 	0.999999
0.2128 	0.999997
0.2135 	0.999996
0.2142 	0.999994
0.2149 	0.999992
0.2156 	0.99999
0.2163 	0.999982
0.217 	0.999907
0.2177 	0.999842
0.2184 	0.999784
0.2191 	0.99969
0.2198 	0.999559
0.2205 	0.999427
0.2212 	0.999294
0.2219 	0.998079
0.2226 	0.996981
0.2233 	0.996123
0.224 	0.994848
0.2247 	0.992823
0.2254 	0.990932
0.2261 	0.989142
0.2268 	0.97055
0.2275 	0.94894
0.2282 	0.930742
0.2289 	0.907961
0.2296 	0.868377
0.2303 	0.828922
0.231 	0.789639
0.2317 	0.73687
0.2324 	0.677003
0.2331 	0.619041
0.2338 	0.55958
0.2345 	0.480641
0.2352 	0.401568
0.2359 	0.322164
0.2366 	0.259247
0.2373 	0.212679
0.238 	0.161461
0.2387 	0.110243
0.2394 	0.0896448
0.2401 	0.0713134
0.2408 	0.0524529
0.2415 	0.0373153
0.2422 	0.028879
0.2429 	0.0180183
0.2436 	0.00684451
0.2443 	0.00386161
0.245 	0.00311263
0.2457 	0.00227248
0.2464 	0.00154384
0.2471 	0.00122399
0.2478 	0.000751101
0.2485 	0.000225198
0.2492 	3.37812e-05
0.2499 	2.81914e-05
0.2506 	2.10279e-05
0.2513 	1.39293e-05
0.252 	1.10825e-05
0.2527 	7.17529e-06
0.2534 	2.56047e-06
0.2541 	2.35334e-07
0.2548 	1.99893e-07
0.2555 	1.53244e-07
0.2562 	1.02113e-07
0.2569 	6.78596e-08
0.2576 	4.10299e-08
0.2583 	2.14809e-08
0.259 	8.42954e-09
0.2597 	7.07414e-09
0.2604 	5.51601e-09
0.2611 	3.80584e-09
0.2618 	2.53037e-09
0.2625 	1.54133e-09
0.2632 	9.19029e-10
0.2639 	4.15377e-10
0.2646 	3.46766e-10
0.2653 	2.75313e-10
0.266 	2.00071e-10
0.2667 	1.42733e-10
0.2674 	9.78682e-11
0.2681 	6.52449e-11
0.2688 	3.46105e-11
0.2695 	2.98332e-11
0.2702 	2.49733e-11
0.2709 	1.99067e-11
0.2716 	1.583e-11
0.2723 	1.27515e-11
0.273 	9.95997e-12
0.2737 	7.16847e-12
0.2744 	6.21277e-12
0.2751 	5.39443e-12
0.2758 	4.55298e-12
0.2765 	3.81879e-12
0.2772 	3.27767e-12
0.2779 	2.75117e-12
0.2786 	2.22657e-12
0.2793 	1.93738e-12
0.28 	1.7124e-12
0.2807 	1.48385e-12
0.2814 	1.27218e-12
0.2821 	1.12244e-12
0.2828 	9.67734e-13
0.2835 	8.11309e-13
0.2842 	7.05414e-13
0.2849 	6.2759e-13
0.2856 	5.47844e-13
0.2863 	4.69802e-13
0.287 	4.18079e-13
0.2877 	3.62342e-13
0.2884 	3.03923e-13
0.2891 	2.59644e-13
0.2898 	2.29506e-13
0.2905 	1.98373e-13
0.2912 	1.66844e-13
0.2919 	1.46656e-13
0.2926 	1.25597e-13
0.2933 	1.02464e-13
0.294 	8.36851e-14
0.2947 	7.27443e-14
0.2954 	6.14476e-14
0.2961 	4.9884e-14
0.2968 	4.23678e-14
0.2975 	3.54268e-14
0.2982 	2.73294e-14
0.2989 	2.03346e-14
0.2996 	1.73821e-14
0.3003 	1.43418e-14
0.301 	1.11845e-14
0.3017 	9.05384e-15
0.3024 	7.40148e-15
0.3031 	5.30255e-15
0.3038 	3.31758e-15
0.3045 	2.8142e-15
0.3052 	2.29782e-15
0.3059 	1.74893e-15
0.3066 	1.35084e-15
0.3073 	1.10049e-15
0.308 	7.43983e-16
0.3087 	3.87479e-16
0.3094 	3.10848e-16
0.3101 	2.54859e-16
0.3108 	1.93547e-16
0.3115 	1.44715e-16
0.3122 	1.1835e-16
0.3129 	8.01058e-17
0.3136 	4.03191e-17
0.3143 	2.79808e-17
0.315 	2.31285e-17
0.3157 	1.77048e-17
0.3164 	1.29463e-17
0.3171 	1.06264e-17
0.3178 	7.42012e-18
0.3185 	3.90594e-18
0.3192 	2.3871e-18
0.3199 	1.97678e-18
0.3206 	1.52441e-18
0.3213 	1.08407e-18
0.322 	8.91173e-19
0.3227 	6.36219e-19
0.3234 	3.39769e-19
0.3241 	1.76619e-19
0.3248 	1.4677e-19
0.3255 	1.13691e-19
0.3262 	7.932e-20
0.3269 	6.43084e-20
0.3276 	4.6744e-20
0.3283 	2.43651e-20
0.329 	9.43797e-21
0.3297 	7.92382e-21
0.3304 	6.2083e-21
0.3311 	4.34174e-21
0.3318 	3.41778e-21
0.3325 	2.56839e-21
0.3332 	1.3194e-21
0.3339 	3.27735e-22
0.3346 	2.79638e-22
0.3353 	2.23932e-22
0.336 	1.58081e-22
0.3367 	1.20947e-22
0.3374 	9.55834e-23
0.3381 	4.98909e-23
0.3388 	7.39342e-24
0.3395 	6.43109e-24
0.3402 	5.31119e-24
0.3409 	3.79737e-24
0.3416 	2.82295e-24
0.3423 	2.36969e-24
0.343 	1.2775e-24
0.3437 	1.85308e-25
0.3444 	9.66623e-26
0.3451 	8.35654e-26
0.3458 	6.0579e-26
0.3465 	4.37861e-26
0.3472 	3.81413e-26
0.3479 	2.20642e-26
0.3486 	4.6299e-27
0.3493 	8.50675e-28
0.35 	7.95577e-28
0.3507 	5.85394e-28
0.3514 	4.11685e-28
0.3521 	3.71713e-28
0.3528 	2.3488e-28
0.3535 	6.43699e-29
0.3542 	3.52585e-30
0.3549 	3.60779e-30
0.3556 	2.80572e-30
0.3563 	1.91554e-30
0.357 	1.79511e-30
0.3577 	1.24967e-30
0.3584 	4.19849e-31
0.3591 	5.32596e-33
0.3598 	6.1012e-33
0.3605 	5.14801e-33
0.3612 	3.50345e-33
0.3619 	3.28037e-33
0.3626 	2.51941e-33
0.3633 	9.87098e-34
0.364 	2.26621e-36
0.3647 	2.89357e-36
0.3654 	2.69522e-36
0.3661 	1.8776e-36
0.3668 	1.68331e-36
0.3675 	1.41786e-36
0.3682 	6.23992e-37
0.3689 	2.55459e-40
0.3696 	3.36855e-40
0.3703 	3.40932e-40
0.371 	2.41918e-40
0.3717 	2.05113e-40
0.3724 	1.86743e-40
0.3731 	8.99261e-41
0.3738 	2.49499e-44
0.3745 	3.36567e-44
0.3752 	3.69346e-44
0.3759 	2.66403e-44
0.3766 	2.13922e-44
0.3773 	2.09171e-44
0.378 	1.08203e-44
0.3787 	7.23531e-46
0.3794 	3.12211e-48
0.3801 	3.71691e-48
0.3808 	2.72096e-48
0.3815 	2.07454e-48
0.3822 	2.05729e-48
0.3829 	1.18907e-48
0.3836 	2.10008e-49
0.3843 	2.70476e-52
0.385 	3.49772e-52
0.3857 	2.59531e-52
0.3864 	1.88331e-52
0.3871 	1.86945e-52
0.3878 	1.20646e-52
0.3885 	3.1762e-53
0.3892 	2.19911e-56
0.3899 	2.88631e-56
0.3906 	2.32466e-56
0.3913 	1.6091e-56
0.392 	1.59867e-56
0.3927 	1.13949e-56
0.3934 	3.79925e-57
0.3941 	1.68281e-60
0.3948 	2.24383e-60
0.3955 	1.9613e-60
0.3962 	1.34134e-60
0.3969 	1.29015e-60
0.3976 	1.00663e-60
0.3983 	3.93966e-61
0.399 	1.21925e-64
0.3997 	1.65277e-64
0.4004 	1.56768e-64
0.4011 	1.09365e-64
0.4018 	9.88059e-65
0.4025 	8.37617e-65
0.4032 	3.68595e-65
0.4039 	8.46988e-69
0.4046 	1.1676e-68
0.4053 	1.20156e-68
0.406 	8.53324e-69
0.4067 	7.26714e-69
0.4074 	6.65063e-69
0.4081 	3.20245e-69
0.4088 	5.75891e-73
0.4095 	8.072e-73
0.4102 	9.00798e-73
0.4109 	6.50118e-73
0.4116 	5.23556e-73
0.4123 	5.1434e-73
0.413 	2.66058e-73
0.4137 	1.77752e-74
0.4144 	5.60711e-77
0.4151 	6.78016e-77
0.4158 	4.96543e-77
0.4165 	3.79233e-77
0.4172 	3.77418e-77
0.4179 	2.18234e-77
0.4186 	3.85367e-78
0.4193 	3.45431e-81
0.42 	4.03325e-81
0.4207 	3.35016e-81
0.4214 	2.80944e-81
0.4221 	2.79081e-81
0.4228 	1.7843e-81
0.4235 	4.33974e-82
0.4242 	-1.45945e-81
0.4249 	-3.65459e-81
0.4256 	-2.11603e-81
0.4263 	-1.1009e-82
0.427 	-1.18013e-82
0.4277 	-1.43744e-82
0.4284 	-1.81399e-82
0.4291 	-1.79247e-81
0.4298 	-4.97697e-81
0.4305 	-3.62654e-81
0.4312 	-4.6214e-82
0.4319 	-2.37481e-82
0.4326 	-2.47051e-82
0.4333 	-2.66273e-82
0.434 	-1.29752e-81
0.4347 	-4.15042e-81
0.4354 	-3.73894e-81
0.4361 	-8.79165e-82
0.4368 	-2.63186e-82
0.4375 	-2.56995e-82
0.4382 	-2.46074e-82
0.4389 	-6.32577e-82
0.4396 	-2.47631e-81
0.4403 	-2.73184e-81
0.441 	-8.69775e-82
0.4417 	-2.01537e-82
0.4424 	-1.93288e-82
0.4431 	-1.69233e-82
0.4438 	-2.13458e-82
0.4445 	-1.14533e-81
0.4452 	-1.54035e-81
0.4459 	-5.93194e-82
0.4466 	-1.17903e-82
0.4473 	-1.14003e-82
0.448 	-9.34884e-83
0.4487 	-7.29738e-83
0.4494 	-4.3063e-82
0.4501 	-7.05667e-82
0.4508 	-3.10445e-82
0.4515 	-5.57607e-83
0.4522 	-5.40463e-83
0.4529 	-4.32645e-83
0.4536 	-3.13006e-83
0.4543 	-1.35701e-82
0.455 	-2.71837e-82
0.4557 	-1.32071e-82
0.4564 	-2.21074e-83
0.4571 	-2.14222e-83
0.4578 	-1.72138e-83
0.4585 	-1.17793e-83
0.4592 	-3.65761e-83
0.4599 	-7.81682e-83
0.4606 	-4.73626e-83
0.4613 	-7.53667e-84
0.462 	-7.30701e-84
0.4627 	-5.99335e-84
0.4634 	-3.95391e-84
0.4641 	-8.5446e-84
0.4648 	-1.97654e-83
0.4655 	-1.46814e-83
0.4662 	-3.07542e-84
0.4669 	-2.1847e-84
0.4676 	-1.85009e-84
0.4683 	-1.19574e-84
0.469 	-1.74262e-84
0.4697 	-4.45175e-84
0.4704 	-4.00682e-84
0.4711 	-1.19634e-84
0.4718 	-5.80781e-85
0.4725 	-5.11614e-85
0.4732 	-3.27977e-85
0.4739 	-3.10475e-85
0.4746 	-9.02138e-85
0.4753 	-9.76496e-85
0.476 	-3.61114e-85
0.4767 	-1.3885e-85
0.4774 	-1.27834e-85
0.4781 	-8.20113e-86
0.4788 	-4.78839e-86
0.4795 	-1.65802e-85
0.4802 	-2.14909e-85
0.4809 	-9.19905e-86
0.4816 	-3.01324e-86
0.4823 	-2.90732e-86
0.483 	-1.87787e-86
0.4837 	-8.48425e-87
0.4844 	-2.78107e-86
0.4851 	-4.31058e-86
0.4858 	-2.05414e-86
0.4865 	-5.98204e-87
0.4872 	-5.8319e-87
0.4879 	-3.95415e-87
0.4886 	-1.85131e-87
0.4893 	-4.27818e-87
0.49 	-7.94044e-87
0.4907 	-4.10932e-87
0.4914 	-1.09359e-87
0.4921 	-1.06759e-87
0.4928 	-7.68787e-88
0.4935 	-3.75076e-88
0.4942 	-6.05724e-88
0.4949 	-1.18324e-87
0.4956 	-7.472e-88
0.4963 	-1.85148e-88
0.497 	-1.80981e-88
0.4977 	-1.38563e-88
0.4984 	-7.05431e-89
0.4991 	-7.91038e-89
0.4998 	-1.64246e-88
0.5005 	-1.24796e-88
0.5012 	-3.55085e-89
0.5019 	-2.85538e-89
0.5026 	-2.32404e-89
0.5033 	-1.23341e-89
0.504 	-9.53288e-90
0.5047 	-2.13206e-89
0.5054 	-1.93027e-89
0.5061 	-6.93061e-90
0.5068 	-4.21137e-90
0.5075 	-3.64078e-90
0.5082 	-2.00975e-90
0.5089 	-1.05801e-90
0.5096 	-2.59697e-90
0.5103 	-2.78371e-90
0.511 	-1.1675e-90
0.5117 	-5.82989e-91
0.5124 	-5.34616e-91
0.5131 	-3.06096e-91
0.5138 	-1.07486e-91
0.5145 	-2.97694e-91
0.5152 	-3.76465e-91
0.5159 	-1.76641e-91
0.5166 	-7.60302e-92
0.5173 	-7.38365e-92
0.518 	-4.37196e-92
0.5187 	-1.36028e-92
0.5194 	-3.21946e-92
0.5201 	-4.79892e-92
0.5208 	-2.45196e-92
0.5215 	-9.37371e-93
0.5222 	-9.21045e-93
0.5229 	-5.87581e-93
0.5236 	-2.12834e-93
0.5243 	-3.29111e-93
0.525 	-5.79305e-93
0.5257 	-3.16497e-93
0.5264 	-1.09617e-93
0.5271 	-1.07809e-93
0.5278 	-7.45615e-94
0.5285 	-3.0381e-94
0.5292 	-3.18412e-94
0.5299 	-5.86573e-94
0.5306 	-3.83553e-94
0.5313 	-1.21977e-94
0.532 	-1.2007e-94
0.5327 	-8.96393e-95
0.5334 	-4.01231e-95
0.5341 	-2.91634e-95
0.5348 	-5.67601e-95
0.5355 	-4.39639e-95
0.5362 	-1.50104e-95
0.5369 	-1.27639e-95
0.5376 	-1.02444e-95
0.5383 	-4.95138e-96
0.539 	-2.52562e-96
0.5397 	-5.26089e-96
0.5404 	-4.7949e-96
0.5411 	-1.92796e-96
0.5418 	-1.29904e-96
0.5425 	-1.11664e-96
0.5432 	-5.7531e-97
0.5439 	-2.06085e-97
0.5446 	-4.67904e-97
0.5453 	-5.00045e-97
0.546 	-2.25948e-97
0.5467 	-1.2695e-97
0.5474 	-1.16459e-97
0.5481 	-6.33281e-98
0.5488 	-1.57251e-98
0.5495 	-3.99816e-98
0.5502 	-5.0062e-98
0.5509 	-2.47024e-98
0.5516 	-1.19455e-98
0.5523 	-1.16566e-98
0.553 	-6.6379e-99
0.5537 	-1.6192e-99
0.5544 	-3.28362e-99
0.5551 	-4.82602e-99
0.5558 	-2.55175e-99
0.5565 	-1.08496e-99
0.5572 	-1.07164e-99
0.5579 	-6.6535e-100
0.5586 	-2.07936e-100
0.5593 	-2.5907e-100
0.56 	-4.48899e-100
0.5607 	-2.51022e-100
0.5614 	-9.53086e-101
0.5621 	-9.41936e-101
0.5628 	-6.39943e-101
0.5635 	-2.36837e-101
0.5642 	-1.96045e-101
0.5649 	-3.56539e-101
0.5656 	-2.3628e-101
0.5663 	-8.10955e-102
0.567 	-8.01899e-102
0.5677 	-5.92137e-102
0.5684 	-2.4811e-102
0.5691 	-1.41882e-102
0.5698 	-2.73456e-102
0.5705 	-2.13364e-102
0.5712 	-7.66055e-103
0.5719 	-6.61744e-103
0.5726 	-5.28003e-103
0.5733 	-2.43418e-103
0.574 	-9.77775e-104
0.5747 	-2.02239e-103
0.5754 	-1.85043e-103
0.5761 	-7.6604e-104
0.5768 	-5.29384e-104
0.5775 	-4.54101e-104
0.5782 	-2.25886e-104
0.5789 	-6.37573e-105
0.5796 	-1.43946e-104
0.5803 	-1.54133e-104
0.581 	-7.09866e-105
0.5817 	-4.10313e-105
0.5824 	-3.76706e-105
0.5831 	-1.99384e-105
0.5838 	-3.89703e-106
0.5845 	-9.83772e-106
0.5852 	-1.23229e-105
0.5859 	-6.16917e-106
0.5866 	-3.0778e-106
0.5873 	-3.01257e-106
0.588 	-1.67906e-106
0.5887 	-3.45539e-107
0.5894 	-6.43954e-107
0.5901 	-9.44658e-107
0.5908 	-5.05885e-107
0.5915 	-2.23098e-107
0.5922 	-2.21083e-107
0.5929 	-1.35092e-107
0.5936 	-3.81743e-108
0.5943 	-4.02637e-108
0.595 	-6.93551e-108
0.5957 	-3.92689e-108
0.5964 	-1.56008e-108
0.5971 	-1.54661e-108
0.5978 	-1.03888e-108
0.5985 	-3.59306e-109
0.5992 	-2.39796e-109
0.5999 	-4.31436e-109
0.6006 	-2.89042e-109
0.6013 	-1.05062e-109
0.602 	-1.04194e-109
0.6027 	-7.63502e-110
0.6034 	-3.04574e-110
0.6041 	-1.35622e-110
0.6048 	-2.56645e-110
0.6055 	-2.01929e-110
0.6062 	-7.69168e-111
0.6069 	-6.74889e-111
0.6076 	-5.3601e-111
0.6083 	-2.38022e-111
0.609 	-7.25956e-112
0.6097 	-1.45781e-111
0.6104 	-1.3397e-111
0.6111 	-5.84097e-112
0.6118 	-4.1968e-112
0.6125 	-3.59277e-112
0.6132 	-1.73515e-112
0.6139 	-3.66312e-113
0.6146 	-7.89725e-113
0.6153 	-8.44411e-113
0.616 	-4.07463e-113
0.6167 	-2.50246e-113
0.6174 	-2.29811e-113
0.6181 	-1.18771e-113
0.6188 	-1.73346e-114
0.6195 	-4.07554e-114
0.6202 	-5.0582e-114
0.6209 	-2.64229e-114
0.6216 	-1.42941e-114
0.6223 	-1.40227e-114
0.623 	-7.66449e-115
0.6237 	-1.30631e-115
0.6244 	-2.00182e-115
0.6251 	-2.88069e-115
0.6258 	-1.60409e-115
0.6265 	-7.81582e-116
0.6272 	-7.76463e-116
0.6279 	-4.67543e-116
0.6286 	-1.19046e-116
0.6293 	-9.35073e-117
0.63 	-1.56048e-116
0.6307 	-9.15901e-117
0.6314 	-4.08902e-117
0.6321 	-4.06359e-117
0.6328 	-2.70125e-117
0.6335 	-8.73706e-118
0.6342 	-4.15091e-118
0.6349 	-7.16991e-118
0.6356 	-4.93532e-118
0.6363 	-2.04642e-118
0.637 	-2.03436e-118
0.6377 	-1.48043e-118
0.6384 	-5.63702e-119
0.6391 	-1.75022e-119
0.6398 	-3.14386e-119
0.6405 	-2.517e-119
0.6412 	-1.08194e-119
0.6419 	-9.74353e-120
0.6426 	-7.70751e-120
0.6433 	-3.30862e-120
0.644 	-7.00935e-121
0.6447 	-1.31741e-120
0.6454 	-1.21906e-120
0.6461 	-5.84597e-121
0.6468 	-4.46776e-121
0.6475 	-3.81864e-121
0.6482 	-1.79816e-121
0.6489 	-2.66978e-122
0.6496 	-5.29931e-122
0.6503 	-5.64283e-122
0.651 	-2.93835e-122
0.6517 	-1.96609e-122
0.6524 	-1.80624e-122
0.6531 	-9.15976e-123
0.6538 	-9.71769e-124
0.6545 	-2.07413e-123
0.6552 	-2.53791e-123
0.6559 	-1.40523e-123
0.6566 	-8.36856e-124
0.6573 	-8.22503e-124
0.658 	-4.43561e-124
0.6587 	-6.4619e-125
0.6594 	-8.20516e-125
0.6601 	-1.16106e-124
0.6608 	-6.69489e-125
0.6615 	-3.52857e-125
0.6622 	-3.51114e-125
0.6629 	-2.10062e-125
0.6636 	-5.08238e-126
0.6643 	-3.57446e-126
0.665 	-5.99817e-126
0.6657 	-3.51926e-126
0.6664 	-1.56966e-126
0.6671 	-1.5609e-126
0.6678 	-1.03903e-126
0.6685 	-3.384e-127
0.6692 	-1.91866e-127
0.6699 	-3.53162e-127
0.6706 	-2.3531e-127
0.6713 	-8.26333e-128
0.672 	-8.20469e-128
0.6727 	-6.01789e-128
0.6734 	-2.4049e-128
0.6741 	-1.29117e-128
0.6748 	-2.67672e-128
0.6755 	-2.06708e-128
0.6762 	-6.59364e-129
0.6769 	-5.54135e-129
0.6776 	-4.42242e-129
0.6783 	-2.02799e-129
0.679 	-9.72037e-130
0.6797 	-2.32535e-129
0.6804 	-2.1215e-129
0.6811 	-7.49781e-130
0.6818 	-4.52018e-130
0.6825 	-3.88101e-130
0.6832 	-1.94553e-130
0.6839 	-7.19599e-131
0.6846 	-2.09534e-130
0.6853 	-2.28511e-130
0.686 	-8.93606e-131
0.6867 	-3.93517e-131
0.6874 	-3.60881e-131
0.6881 	-1.92711e-131
0.6888 	-4.66401e-132
0.6895 	-1.87865e-131
0.6902 	-2.4801e-131
0.6909 	-1.05456e-131
0.6916 	-3.39348e-132
0.6923 	-3.30641e-132
0.693 	-1.85724e-132
0.6937 	-4.08066e-133
0.6944 	-1.65917e-132
0.6951 	-2.69961e-132
0.6958 	-1.22983e-132
0.6965 	-2.83351e-133
0.6972 	-2.78834e-133
0.6979 	-1.79684e-133
0.6986 	-6.81574e-134
0.6993 	-2.61078e-133
0.7 	-5.37029e-133
