0 	1
0.0007 	1
0.0014 	1
0.0021 	1
0.0028 	1
0.0035 	1
0.0042 	1
0.0049 	1
0.0056 	1
0.0063 	1
0.007 	1
0.0077 	1
0.0084 	1
0.0091 	1
0.0098 	1
0.0105 	1
0.0112 	1
0.0119 	1
0.0126 	1
0.0133 	1
0.014 	1
0.0147 	1
0.0154 	1
0.0161 	1
0.0168 	1
0.0175 	1
0.0182 	1
0.0189 	1
0.0196 	1
0.0203 	1
0.021 	1
0.0217 	1
0.0224 	1
0.0231 	1
0.0238 	1
0.0245 	1
0.0252 	1
0.0259 	1
0.0266 	1
0.0273 	1
0.028 	1
0.0287 	1
0.0294 	1
0.0301 	1
0.0308 	1
0.0315 	1
0.0322 	1
0.0329 	1
0.0336 	1
0.0343 	1
0.035 	1
0.0357 	1
0.0364 	1
0.0371 	1
0.0378 	1
0.0385 	1
0.0392 	1
0.0399 	1
0.0406 	1
0.0413 	1
0.042 	1
0.0427 	1
0.0434 	1
0.0441 	1
0.0448 	1
0.0455 	1
0.0462 	1
0.0469 	1
0.0476 	1
0.0483 	1
0.049 	1
0.0497 	1
0.0504 	1
0.0511 	1
0.0518 	1
0.0525 	1
0.0532 	1
0.0539 	1
0.0546 	1
0.0553 	1
0.056 	1
0.0567 	1
0.0574 	1
0.0581 	1
0.0588 	1
0.0595 	1
0.0602 	1
0.0609 	1
0.0616 	1
0.0623 	1
0.063 	1
0.0637 	1
0.0644 	1
0.0651 	1
0.0658 	1
0.0665 	1
0.0672 	1
0.0679 	1
0.0686 	1
0.0693 	1
0.07 	1
0.0707 	1
0.0714 	1
0.0721 	1
0.0728 	1
0.0735 	1
0.0742 	1
0.0749 	1
0.0756 	1
0.0763 	1
0.077 	1
0.0777 	1
0.0784 	1
0.0791 	1
0.0798 	1
0.0805 	1
0.0812 	1
0.0819 	1
0.0826 	1
0.0833 	1
0.084 	1
0.0847 	1
0.0854 	1
0.0861 	1
0.0868 	1
0.0875 	1
0.0882 	1
0.0889 	1
0.0896 	1
0.0903 	1
0.091 	1
0.0917 	1
0.0924 	1
0.0931 	1
0.0938 	1
0.0945 	1
0.0952 	1
0.0959 	1
0.0966 	1
0.0973 	1
0.098 	1
0.0987 	1
0.0994 	1
0.1001 	1
0.1008 	1
0.1015 	1
0.1022 	1
0.1029 	1
0.1036 	1
0.1043 	1
0.105 	1
0.1057 	1
0.1064 	1
0.1071 	1
0.1078 	1
0.1085 	1
0.1092 	1
0.1099 	1
0.1106 	1
0.1113 	1
0.112 	1
0.1127 	1
0.1134 	1
0.1141 	1
0.1148 	1
0.1155 	1
0.1162 	1
0.1169 	1
0.1176 	1
0.1183 	1
0.119 	1
0.1197 	1
0.1204 	1
0.1211 	1
0.1218 	1
0.1225 	1
0.1232 	1
0.1239 	1
0.1246 	1
0.1253 	1
0.126 	1
0.1267 	1
0.1274 	1
0.1281 	1
0.1288 	1
0.1295 	1
0.1302 	1
0.1309 	1
0.1316 	1
0.1323 	1
0.133 	1
0.1337 	1
0.1344 	1
0.1351 	1
0.1358 	1
0.1365 	1
0.1372 	1
0.1379 	1
0.1386 	1
0.1393 	1
0.14 	1
0.1407 	1
0.1414 	1
0.1421 	1
0.1428 	1
0.1435 	1
0.1442 	1
0.1449 	1
0.1456 	1
0.1463 	1
0.147 	1
0.1477 	1
0.1484 	1
0.1491 	1
0.1498 	1
0.1505 	1
0.1512 	1
0.1519 	1
0.1526 	1
0.1533 	1
0.154 	1
0.1547 	1
0.1554 	1
0.1561 	1
0.1568 	1
0.1575 	1
0.1582 	1
0.1589 	1
0.1596 	1
0.1603 	1
0.161 	1
0.1617 	1
0.1624 	1
0.1631 	1
0.1638 	1
0.1645 	1
0.1652 	1
0.1659 	1
0.1666 	1
0.1673 	1
0.168 	1
0.1687 	1
0.1694 	1
0.1701 	1
0.1708 	1
0.1715 	1
0.1722 	1
0.1729 	1
0.1736 	1
0.1743 	1
0.175 	1
0.1757 	1
0.1764 	1
0.1771 	1
0.1778 	1
0.1785 	1
0.1792 	1
0.1799 	1
0.1806 	1
0.1813 	1
0.182 	1
0.1827 	1
0.1834 	1
0.1841 	1
0.1848 	1
0.1855 	1
0.1862 	1
0.1869 	1
0.1876 	1
0.1883 	1
0.189 	1
0.1897 	1
0.1904 	1
0.1911 	1
0.1918 	1
0.1925 	1
0.1932 	1
0.1939 	1
0.1946 	1
0.1953 	1
0.196 	1
0.1967 	1
0.1974 	1
0.1981 	1
0.1988 	1
0.1995 	1
0.2002 	1
0.2009 	1
0.2016 	0.999992
0.2023 	0.999978
0.203 	0.999968
0.2037 	0.999964
0.2044 	0.999945
0.2051 	0.999928
0.2058 	0.999919
0.2065 	0.999397
0.2072 	0.997952
0.2079 	0.996817
0.2086 	0.996139
0.2093 	0.994333
0.21 	0.992219
0.2107 	0.990652
0.2114 	0.984897
0.2121 	0.963789
0.2128 	0.94455
0.2135 	0.930586
0.2142 	0.90406
0.2149 	0.870555
0.2156 	0.839843
0.2163 	0.807383
0.217 	0.746137
0.2177 	0.685527
0.2184 	0.629585
0.2191 	0.558144
0.2198 	0.471202
0.2205 	0.384444
0.2212 	0.297759
0.2219 	0.246375
0.2226 	0.197707
0.2233 	0.142251
0.224 	0.100223
0.2247 	0.0826344
0.2254 	0.0635506
0.2261 	0.0433457
0.2268 	0.0332815
0.2275 	0.0259832
0.2282 	0.0136096
0.2289 	0.00301304
0.2296 	0.00255726
0.2303 	0.00203484
0.231 	0.00142358
0.2317 	0.00107322
0.2324 	0.000867802
0.2331 	0.0005106
0.2338 	0.000115918
0.2345 	9.8106e-05
0.2352 	7.89442e-05
0.2359 	5.64084e-05
0.2366 	4.12025e-05
0.2373 	3.33266e-05
0.238 	2.12923e-05
0.2387 	5.90973e-06
0.2394 	4.14119e-06
0.2401 	3.39011e-06
0.2408 	2.45964e-06
0.2415 	1.74737e-06
0.2422 	1.42789e-06
0.2429 	9.76088e-07
0.2436 	3.35792e-07
0.2443 	1.75616e-07
0.245 	1.46387e-07
0.2457 	1.0781e-07
0.2464 	7.47088e-08
0.2471 	6.16879e-08
0.2478 	4.49353e-08
0.2485 	1.81423e-08
0.2492 	7.77787e-09
0.2499 	6.54064e-09
0.2506 	4.93926e-09
0.2513 	3.35624e-09
0.252 	2.80084e-09
0.2527 	2.16666e-09
0.2534 	1.00284e-09
0.2541 	3.92159e-10
0.2548 	3.34636e-10
0.2555 	2.62907e-10
0.2562 	1.85495e-10
0.2569 	1.55152e-10
0.2576 	1.28431e-10
0.2583 	7.38142e-11
0.259 	3.6946e-11
0.2597 	3.26354e-11
0.2604 	2.77904e-11
0.2611 	2.25446e-11
0.2618 	1.95527e-11
0.2625 	1.71755e-11
0.2632 	1.35508e-11
0.2639 	1.03133e-11
0.2646 	9.32455e-12
0.2653 	8.3093e-12
0.266 	7.25864e-12
0.2667 	6.48245e-12
0.2674 	5.85874e-12
0.2681 	5.1179e-12
0.2688 	4.3584e-12
0.2695 	3.99342e-12
0.2702 	3.62686e-12
0.2709 	3.25636e-12
0.2716 	2.94431e-12
0.2723 	2.6907e-12
0.273 	2.41533e-12
0.2737 	2.12311e-12
0.2744 	1.93848e-12
0.2751 	1.76235e-12
0.2758 	1.58757e-12
0.2765 	1.4293e-12
0.2772 	1.30076e-12
0.2779 	1.16655e-12
0.2786 	1.02455e-12
0.2793 	9.18388e-13
0.28 	8.22002e-13
0.2807 	7.2719e-13
0.2814 	6.38405e-13
0.2821 	5.71716e-13
0.2828 	5.03129e-13
0.2835 	4.29675e-13
0.2842 	3.74048e-13
0.2849 	3.28324e-13
0.2856 	2.83269e-13
0.2863 	2.39463e-13
0.287 	2.10447e-13
0.2877 	1.80971e-13
0.2884 	1.48652e-13
0.2891 	1.242e-13
0.2898 	1.07615e-13
0.2905 	9.12655e-14
0.2912 	7.50095e-14
0.2919 	6.464e-14
0.2926 	5.47233e-14
0.2933 	4.36544e-14
0.294 	3.48217e-14
0.2947 	3.00192e-14
0.2954 	2.52864e-14
0.2961 	2.06059e-14
0.2968 	1.7402e-14
0.2975 	1.46007e-14
0.2982 	1.15505e-14
0.2989 	8.85682e-15
0.2996 	7.62375e-15
0.3003 	6.40626e-15
0.301 	5.20956e-15
0.3017 	4.32332e-15
0.3024 	3.60956e-15
0.3031 	2.8509e-15
0.3038 	2.10845e-15
0.3045 	1.80965e-15
0.3052 	1.51351e-15
0.3059 	1.22404e-15
0.3066 	9.94019e-16
0.3073 	8.23444e-16
0.308 	6.4534e-16
0.3087 	4.61631e-16
0.3094 	3.87173e-16
0.3101 	3.21429e-16
0.3108 	2.57544e-16
0.3115 	2.03329e-16
0.3122 	1.66522e-16
0.3129 	1.2865e-16
0.3136 	8.93757e-17
0.3143 	7.11636e-17
0.315 	5.86958e-17
0.3157 	4.66788e-17
0.3164 	3.57814e-17
0.3171 	2.89895e-17
0.3178 	2.20926e-17
0.3185 	1.49389e-17
0.3192 	1.11112e-17
0.3199 	9.13147e-18
0.3206 	7.22281e-18
0.3213 	5.38593e-18
0.322 	4.32807e-18
0.3227 	3.26419e-18
0.3234 	2.16585e-18
0.3241 	1.48299e-18
0.3248 	1.21561e-18
0.3255 	9.57158e-19
0.3262 	7.0228e-19
0.3269 	5.53788e-19
0.3276 	4.13456e-19
0.3283 	2.69662e-19
0.329 	1.6641e-19
0.3297 	1.36135e-19
0.3304 	1.06742e-19
0.3311 	7.80106e-20
0.3318 	5.95697e-20
0.3325 	4.39355e-20
0.3332 	2.81922e-20
0.3339 	1.52138e-20
0.3346 	1.24355e-20
0.3353 	9.72058e-21
0.336 	7.09014e-21
0.3367 	5.23854e-21
0.3374 	3.81965e-21
0.3381 	2.41336e-21
0.3388 	1.09765e-21
0.3395 	8.97428e-22
0.3402 	7.00235e-22
0.3409 	5.1062e-22
0.3416 	3.64947e-22
0.3423 	2.63219e-22
0.343 	1.63694e-22
0.3437 	6.57469e-23
0.3444 	4.87433e-23
0.3451 	3.80409e-23
0.3458 	2.77832e-23
0.3465 	1.9222e-23
0.3472 	1.37146e-23
0.3479 	8.37975e-24
0.3486 	3.26333e-24
0.3493 	1.84987e-24
0.35 	1.44635e-24
0.3507 	1.05997e-24
0.3514 	7.11546e-25
0.3521 	5.02349e-25
0.3528 	3.00383e-25
0.3535 	1.15312e-25
0.3542 	4.32776e-26
0.3549 	3.40429e-26
0.3556 	2.50569e-26
0.3563 	1.6398e-26
0.357 	1.14517e-26
0.3577 	6.64423e-27
0.3584 	2.57618e-27
0.3591 	4.91876e-28
0.3598 	3.91377e-28
0.3605 	2.90895e-28
0.3612 	1.90419e-28
0.3619 	1.29217e-28
0.3626 	7.13005e-29
0.3633 	2.90244e-29
0.364 	1.73184e-30
0.3647 	1.41043e-30
0.3654 	1.07073e-30
0.3661 	7.17333e-31
0.3668 	4.6763e-31
0.3675 	2.46208e-31
0.3682 	1.04025e-31
0.3689 	1.15939e-33
0.3696 	9.83308e-34
0.3703 	7.77955e-34
0.371 	5.3357e-34
0.3717 	3.3778e-34
0.3724 	1.6899e-34
0.3731 	6.93524e-35
0.3738 	1.63702e-37
0.3745 	1.44267e-37
0.3752 	1.20093e-37
0.3759 	8.40712e-38
0.3766 	5.28766e-38
0.3773 	2.6509e-38
0.378 	1.01497e-38
0.3787 	6.91396e-40
0.3794 	1.4238e-41
0.3801 	1.23365e-41
0.3808 	8.79146e-42
0.3815 	5.56403e-42
0.3822 	2.90833e-42
0.3829 	1.05696e-42
0.3836 	1.876e-43
0.3843 	1.20296e-45
0.385 	1.0744e-45
0.3857 	7.77935e-46
0.3864 	4.97001e-46
0.3871 	2.73031e-46
0.3878 	9.63075e-47
0.3885 	2.54182e-47
0.3892 	9.39163e-50
0.3899 	8.42264e-50
0.3906 	6.3253e-50
0.3913 	4.07918e-50
0.392 	2.34374e-50
0.3927 	8.08222e-51
0.3934 	2.69893e-51
0.3941 	6.91857e-54
0.3948 	6.23164e-54
0.3955 	4.84642e-54
0.3962 	3.18187e-54
0.3969 	1.88233e-54
0.3976 	6.33325e-55
0.3983 	2.48129e-55
0.399 	4.84686e-58
0.3997 	4.38952e-58
0.4004 	3.53283e-58
0.4011 	2.37663e-58
0.4018 	1.43003e-58
0.4025 	5.4058e-59
0.4032 	2.05908e-59
0.4039 	3.25232e-62
0.4046 	2.96407e-62
0.4053 	2.46869e-62
0.406 	1.69713e-62
0.4067 	1.03704e-62
0.4074 	4.38885e-63
0.4081 	1.58261e-63
0.4088 	2.10764e-66
0.4095 	1.93358e-66
0.4102 	1.66682e-66
0.4109 	1.16831e-66
0.4116 	7.24314e-67
0.4123 	3.34839e-67
0.413 	1.14874e-67
0.4137 	7.78229e-69
0.4144 	1.22816e-70
0.4151 	1.09566e-70
0.4158 	7.81605e-71
0.4165 	4.91378e-71
0.4172 	2.4405e-71
0.4179 	7.99679e-72
0.4186 	1.41779e-72
0.4193 	-8.72415e-75
0.42 	-2.99777e-74
0.4207 	-1.12561e-74
0.4214 	3.12432e-75
0.4221 	1.58719e-75
0.4228 	4.11384e-76
0.4235 	1.46945e-77
0.4242 	-1.17082e-74
0.4249 	-2.97236e-74
0.4256 	-1.6851e-74
0.4263 	-1.16871e-76
0.427 	-1.09111e-76
0.4277 	-1.02384e-76
0.4284 	-1.00529e-76
0.4291 	-6.59716e-75
0.4298 	-1.95924e-74
0.4305 	-1.40181e-74
0.4312 	-1.0161e-75
0.4319 	-8.01764e-77
0.4326 	-7.26804e-77
0.4333 	-7.08456e-77
0.434 	-3.29134e-75
0.4347 	-1.23122e-74
0.4354 	-1.10205e-74
0.4361 	-1.99456e-75
0.4368 	-5.58471e-77
0.4375 	-5.00688e-77
0.4382 	-4.82343e-77
0.4389 	-1.34306e-75
0.4396 	-7.39069e-75
0.4403 	-8.25305e-75
0.441 	-2.20171e-75
0.4417 	-3.78038e-77
0.4424 	-3.36315e-77
0.4431 	-3.18695e-77
0.4438 	-3.10848e-76
0.4445 	-4.22924e-75
0.4452 	-5.90782e-75
0.4459 	-1.98685e-75
0.4466 	-2.48903e-77
0.4473 	-2.19795e-77
0.448 	-2.04418e-77
0.4487 	-1.97898e-77
0.4494 	-2.29921e-75
0.4501 	-4.05241e-75
0.4508 	-1.59586e-75
0.4515 	-1.59414e-77
0.4522 	-1.39776e-77
0.4529 	-1.27292e-77
0.4536 	-1.23006e-77
0.4543 	-1.18104e-75
0.455 	-2.66865e-75
0.4557 	-1.17992e-75
0.4564 	-9.9308e-78
0.4571 	-8.64943e-78
0.4578 	-7.69516e-78
0.4585 	-7.42286e-78
0.4592 	-5.68098e-76
0.4599 	-1.44042e-75
0.4606 	-8.16734e-76
0.4613 	-6.01678e-78
0.462 	-5.20819e-78
0.4627 	-4.51649e-78
0.4634 	-4.34922e-78
0.4641 	-2.51842e-76
0.4648 	-7.46998e-76
0.4655 	-5.34487e-76
0.4662 	-3.89104e-77
0.4669 	-3.05183e-78
0.4676 	-2.57421e-78
0.4683 	-2.4748e-78
0.469 	-9.96185e-77
0.4697 	-3.71803e-76
0.4704 	-3.32779e-76
0.4711 	-6.03485e-77
0.4718 	-1.74048e-78
0.4725 	-1.44899e-78
0.4732 	-1.36801e-78
0.4739 	-3.23831e-77
0.4746 	-1.77332e-76
0.4753 	-1.9798e-76
0.476 	-5.28913e-77
0.4767 	-9.66244e-79
0.4774 	-7.99535e-79
0.4781 	-7.34836e-79
0.4788 	-6.04881e-78
0.4795 	-8.08627e-77
0.4802 	-1.12904e-76
0.4809 	-3.80138e-77
0.4816 	-5.22259e-79
0.4823 	-4.29853e-79
0.483 	-3.83661e-79
0.4837 	-3.66457e-79
0.4844 	-3.51316e-77
0.4851 	-6.18693e-77
0.4858 	-2.43879e-77
0.4865 	-2.74859e-79
0.4872 	-2.25183e-79
0.4879 	-1.94726e-79
0.4886 	-1.85721e-79
0.4893 	-1.44648e-77
0.49 	-3.26407e-77
0.4907 	-1.44439e-77
0.4914 	-1.40855e-79
0.4921 	-1.14943e-79
0.4928 	-9.60851e-80
0.4935 	-9.15145e-80
0.4942 	-5.59464e-78
0.4949 	-1.41576e-77
0.4956 	-8.03228e-78
0.4963 	-7.02848e-80
0.497 	-5.71667e-80
0.4977 	-4.60973e-80
0.4984 	-4.3847e-80
0.4991 	-2.00113e-78
0.4998 	-5.91798e-78
0.5005 	-4.23572e-78
0.5012 	-3.13835e-79
0.5019 	-2.77015e-80
0.5026 	-2.15045e-80
0.5033 	-2.04295e-80
0.504 	-6.41287e-79
0.5047 	-2.38164e-78
0.5054 	-2.13166e-78
0.5061 	-3.88941e-79
0.5068 	-1.30785e-80
0.5075 	-1.0003e-80
0.5082 	-9.25818e-81
0.5089 	-1.69908e-79
0.5096 	-9.21446e-79
0.5103 	-1.02835e-78
0.511 	-2.75727e-79
0.5117 	-6.01624e-81
0.5124 	-4.59152e-81
0.5131 	-4.08181e-81
0.5138 	-2.64143e-80
0.5145 	-3.42e-79
0.5152 	-4.77115e-79
0.5159 	-1.6105e-79
0.5166 	-2.69675e-81
0.5173 	-2.05571e-81
0.518 	-1.75138e-81
0.5187 	-1.65327e-81
0.5194 	-1.21378e-79
0.5201 	-2.1345e-79
0.5208 	-8.43021e-80
0.5215 	-1.17805e-81
0.5222 	-8.97804e-82
0.5229 	-7.31595e-82
0.5236 	-6.89909e-82
0.5243 	-4.09823e-80
0.525 	-9.22752e-80
0.5257 	-4.08964e-80
0.5264 	-5.01614e-82
0.5271 	-3.82523e-82
0.5278 	-2.97645e-82
0.5285 	-2.80422e-82
0.5292 	-1.30533e-80
0.5299 	-3.29319e-80
0.5306 	-1.8703e-80
0.5313 	-2.08236e-82
0.532 	-1.59016e-82
0.5327 	-1.17988e-82
0.5334 	-1.11066e-82
0.5341 	-3.86277e-81
0.5348 	-1.13731e-80
0.5355 	-8.14453e-81
0.5362 	-6.20347e-82
0.5369 	-6.45044e-83
0.5376 	-4.55884e-83
0.5383 	-4.28809e-83
0.539 	-1.02966e-81
0.5397 	-3.79755e-81
0.5404 	-3.3991e-81
0.5411 	-6.25892e-82
0.5418 	-2.5537e-83
0.5425 	-1.77857e-83
0.5432 	-1.61446e-83
0.5439 	-2.28677e-82
0.5446 	-1.22429e-81
0.5453 	-1.36566e-81
0.546 	-3.68059e-82
0.5467 	-9.86865e-84
0.5474 	-6.91201e-84
0.5481 	-5.92965e-84
0.5488 	-3.05526e-83
0.5495 	-3.80259e-82
0.5502 	-5.29925e-82
0.5509 	-1.79491e-82
0.5516 	-3.72335e-84
0.5523 	-2.62426e-84
0.553 	-2.12537e-84
0.5537 	-1.98708e-84
0.5544 	-1.13409e-82
0.5551 	-1.9909e-82
0.5558 	-7.88264e-83
0.5565 	-1.3718e-84
0.5572 	-9.73427e-85
0.5579 	-7.43716e-85
0.5586 	-6.94974e-85
0.5593 	-3.23091e-83
0.56 	-7.25587e-83
0.5607 	-3.22192e-83
0.5614 	-4.93656e-85
0.5621 	-3.52813e-85
0.5628 	-2.54168e-85
0.5635 	-2.37411e-85
0.5642 	-8.71746e-84
0.5649 	-2.1918e-83
0.5656 	-1.2463e-83
0.5663 	-1.73562e-85
0.567 	-1.24969e-85
0.5677 	-8.4872e-86
0.5684 	-7.925e-86
0.5691 	-2.19404e-84
0.5698 	-6.42927e-84
0.5705 	-4.60699e-84
0.5712 	-3.6171e-85
0.5719 	-4.32683e-86
0.5726 	-2.77038e-86
0.5733 	-2.58621e-86
0.574 	-4.99629e-85
0.5747 	-1.8295e-84
0.5754 	-1.63766e-84
0.5761 	-3.04549e-85
0.5768 	-1.46474e-86
0.5775 	-9.26158e-87
0.5782 	-8.25473e-87
0.5789 	-9.54065e-86
0.5796 	-5.0428e-85
0.5803 	-5.62252e-85
0.581 	-1.52355e-85
0.5817 	-4.84957e-87
0.5824 	-3.11768e-87
0.5831 	-2.57821e-87
0.5838 	-1.12027e-86
0.5845 	-1.34347e-85
0.5852 	-1.87033e-85
0.5859 	-6.35731e-86
0.5866 	-1.57085e-87
0.5873 	-1.02628e-87
0.588 	-7.88328e-88
0.5887 	-7.31903e-88
0.5894 	-3.44786e-86
0.5901 	-6.04272e-86
0.5908 	-2.3985e-86
0.5915 	-4.97971e-88
0.5922 	-3.30448e-88
0.5929 	-2.36079e-88
0.5936 	-2.19185e-88
0.5943 	-8.47956e-87
0.595 	-1.89974e-86
0.5957 	-8.45147e-87
0.5964 	-1.54546e-88
0.5971 	-1.04102e-88
0.5978 	-6.927e-89
0.5985 	-6.43177e-89
0.5992 	-1.98147e-87
0.5999 	-4.96647e-87
0.6006 	-2.82736e-87
0.6013 	-4.69714e-89
0.602 	-3.2097e-89
0.6027 	-1.99221e-89
0.6034 	-1.85002e-89
0.6041 	-4.33352e-88
0.6048 	-1.26448e-87
0.6055 	-9.06639e-88
0.6062 	-7.32103e-89
0.6069 	-9.68842e-90
0.6076 	-5.61797e-90
0.6083 	-5.21795e-90
0.609 	-8.60699e-89
0.6097 	-3.13176e-88
0.6104 	-2.80368e-88
0.6111 	-5.26226e-89
0.6118 	-2.8639e-90
0.6125 	-1.64725e-90
0.6132 	-1.44355e-90
0.6139 	-1.44105e-89
0.6146 	-7.53277e-89
0.6153 	-8.39557e-89
0.616 	-2.28647e-89
0.6167 	-8.29304e-91
0.6174 	-4.91553e-91
0.6181 	-3.91832e-91
0.6188 	-1.51008e-90
0.6195 	-1.75536e-89
0.6202 	-2.44161e-89
0.6209 	-8.32624e-90
0.6216 	-2.35314e-91
0.6223 	-1.43354e-91
0.623 	-1.0438e-91
0.6237 	-9.64691e-92
0.6244 	-3.94897e-90
0.6251 	-6.91114e-90
0.6258 	-2.74954e-90
0.6265 	-6.54466e-92
0.6272 	-4.08821e-92
0.6279 	-2.72961e-92
0.6286 	-2.52376e-92
0.6293 	-8.5306e-91
0.63 	-1.90721e-90
0.6307 	-8.49942e-91
0.6314 	-1.78469e-92
0.6321 	-1.14075e-92
0.6328 	-7.00932e-93
0.6335 	-6.4836e-93
0.6342 	-1.75433e-91
0.6349 	-4.38536e-91
0.6356 	-2.49932e-91
0.6363 	-4.77328e-93
0.637 	-3.1162e-93
0.6377 	-1.76799e-93
0.6384 	-1.63618e-93
0.6391 	-3.38349e-92
0.6398 	-9.83642e-92
0.6405 	-7.05698e-92
0.6412 	-5.84583e-93
0.6419 	-8.33806e-94
0.6426 	-4.3817e-94
0.6433 	-4.05712e-94
0.644 	-5.94052e-93
0.6447 	-2.14964e-92
0.6454 	-1.92471e-92
0.6461 	-3.64387e-93
0.6468 	-2.18636e-94
0.6475 	-1.1469e-94
0.6482 	-9.88723e-95
0.6489 	-8.82648e-94
0.6496 	-4.56908e-93
0.6503 	-5.09086e-93
0.651 	-1.39312e-93
0.6517 	-5.62018e-95
0.6524 	-3.08468e-95
0.6531 	-2.36807e-95
0.6538 	-8.32828e-95
0.6545 	-9.41992e-94
0.6552 	-1.30925e-93
0.6559 	-4.47886e-94
0.6566 	-1.41636e-95
0.6573 	-8.08528e-96
0.658 	-5.57072e-96
0.6587 	-5.13444e-96
0.6594 	-1.87536e-94
0.6601 	-3.27781e-94
0.6608 	-1.30702e-94
0.6615 	-3.49692e-96
0.6622 	-2.06521e-96
0.6629 	-1.28445e-96
0.6636 	-1.18425e-96
0.6643 	-3.57666e-95
0.665 	-7.98079e-95
0.6657 	-3.56277e-95
0.6664 	-8.43682e-97
0.6671 	-5.1283e-97
0.6678 	-2.88669e-97
0.6685 	-2.66082e-97
0.6692 	-6.43708e-96
0.6699 	-1.6049e-95
0.6706 	-9.15689e-96
0.6713 	-1.97596e-97
0.672 	-1.22945e-97
0.6727 	-6.24581e-98
0.6734 	-5.74791e-98
0.6741 	-1.06188e-96
0.6748 	-3.07566e-96
0.6755 	-2.20786e-96
0.6762 	-1.87438e-97
0.6769 	-2.80329e-98
0.6776 	-1.27029e-98
0.6783 	-1.16408e-98
0.679 	-1.51711e-97
0.6797 	-5.4582e-97
0.6804 	-4.8874e-97
0.6811 	-9.32698e-98
0.6818 	-5.91292e-99
0.6825 	-2.58718e-99
0.6832 	-2.11678e-99
0.6839 	-1.66742e-98
0.6846 	-8.5394e-98
0.6853 	-9.5102e-98
0.686 	-2.61276e-98
0.6867 	-1.10121e-99
0.6874 	-4.90318e-100
0.6881 	-3.22505e-100
0.6888 	-9.91908e-100
0.6895 	-1.08711e-98
0.6902 	-1.50935e-98
0.6909 	-5.17411e-99
0.6916 	-1.67865e-100
0.6923 	-7.47821e-101
0.693 	-3.67642e-101
0.6937 	-3.08155e-101
0.6944 	-9.80857e-100
0.6951 	-1.71131e-99
0.6958 	-6.83045e-100
0.6965 	-1.83807e-101
0.6972 	-8.20715e-102
0.6979 	-2.68925e-102
0.6986 	-2.03445e-102
0.6993 	-1.69685e-102
0.7 	-1.44575e-102
