0 	1
0.0007 	1
0.0014 	1
0.0021 	1
0.0028 	1
0.0035 	1
0.0042 	1
0.0049 	1
0.0056 	1
0.0063 	1
0.007 	1
0.0077 	1
0.0084 	1
0.0091 	1
0.0098 	1
0.0105 	1
0.0112 	1
0.0119 	1
0.0126 	1
0.0133 	1
0.014 	1
0.0147 	1
0.0154 	1
0.0161 	1
0.0168 	1
0.0175 	1
0.0182 	1
0.0189 	1
0.0196 	1
0.0203 	1
0.021 	1
0.0217 	1
0.0224 	1
0.0231 	1
0.0238 	1
0.0245 	1
0.0252 	1
0.0259 	1
0.0266 	1
0.0273 	1
0.028 	1
0.0287 	1
0.0294 	1
0.0301 	1
0.0308 	1
0.0315 	1
0.0322 	1
0.0329 	1
0.0336 	1
0.0343 	1
0.035 	1
0.0357 	1
0.0364 	1
0.0371 	1
0.0378 	1
0.0385 	1
0.0392 	1
0.0399 	1
0.0406 	1
0.0413 	1
0.042 	1
0.0427 	1
0.0434 	1
0.0441 	1
0.0448 	1
0.0455 	1
0.0462 	1
0.0469 	1
0.0476 	1
0.0483 	1
0.049 	1
0.0497 	1
0.0504 	1
0.0511 	1
0.0518 	1
0.0525 	1
0.0532 	1
0.0539 	1
0.0546 	1
0.0553 	1
0.056 	1
0.0567 	1
0.0574 	1
0.0581 	1
0.0588 	1
0.0595 	1
0.0602 	1
0.0609 	1
0.0616 	1
0.0623 	1
0.063 	1
0.0637 	1
0.0644 	1
0.0651 	1
0.0658 	1
0.0665 	1
0.0672 	1
0.0679 	1
0.0686 	1
0.0693 	1
0.07 	1
0.0707 	1
0.0714 	1
0.0721 	1
0.0728 	1
0.0735 	1
0.0742 	1
0.0749 	1
0.0756 	1
0.0763 	1
0.077 	1
0.0777 	1
0.0784 	1
0.0791 	1
0.0798 	1
0.0805 	1
0.0812 	1
0.0819 	1
0.0826 	1
0.0833 	1
0.084 	1
0.0847 	1
0.0854 	1
0.0861 	1
0.0868 	1
0.0875 	1
0.0882 	1
0.0889 	1
0.0896 	1
0.0903 	1
0.091 	1
0.0917 	1
0.0924 	1
0.0931 	1
0.0938 	1
0.0945 	1
0.0952 	1
0.0959 	1
0.0966 	1
0.0973 	1
0.098 	1
0.0987 	1
0.0994 	1
0.1001 	1
0.1008 	1
0.1015 	1
0.1022 	1
0.1029 	1
0.1036 	1
0.1043 	1
0.105 	1
0.1057 	1
0.1064 	1
0.1071 	1
0.1078 	1
0.1085 	1
0.1092 	1
0.1099 	1
0.1106 	1
0.1113 	1
0.112 	1
0.1127 	1
0.1134 	1
0.1141 	1
0.1148 	1
0.1155 	1
0.1162 	1
0.1169 	1
0.1176 	1
0.1183 	1
0.119 	1
0.1197 	1
0.1204 	1
0.1211 	1
0.1218 	1
0.1225 	1
0.1232 	1
0.1239 	1
0.1246 	1
0.1253 	1
0.126 	1
0.1267 	1
0.1274 	1
0.1281 	1
0.1288 	1
0.1295 	1
0.1302 	1
0.1309 	1
0.1316 	1
0.1323 	1
0.133 	1
0.1337 	1
0.1344 	1
0.1351 	1
0.1358 	1
0.1365 	1
0.1372 	1
0.1379 	1
0.1386 	1
0.1393 	1
0.14 	1
0.1407 	1
0.1414 	1
0.1421 	1
0.1428 	1
0.1435 	1
0.1442 	1
0.1449 	1
0.1456 	1
0.1463 	1
0.147 	1
0.1477 	1
0.1484 	1
0.1491 	1
0.1498 	1
0.1505 	1
0.1512 	1
0.1519 	1
0.1526 	1
0.1533 	1
0.154 	1
0.1547 	1
0.1554 	1
0.1561 	1
0.1568 	1
0.1575 	1
0.1582 	1
0.1589 	1
0.1596 	1
0.1603 	1
0.161 	1
0.1617 	1
0.1624 	1
0.1631 	1
0.1638 	1
0.1645 	1
0.1652 	1
0.1659 	1
0.1666 	1
0.1673 	1
0.168 	1
0.1687 	1
0.1694 	1
0.1701 	1
0.1708 	1
0.1715 	1
0.1722 	1
0.1729 	1
0.1736 	1
0.1743 	1
0.175 	1
0.1757 	1
0.1764 	1
0.1771 	1
0.1778 	1
0.1785 	1
0.1792 	1
0.1799 	1
0.1806 	1
0.1813 	1
0.182 	1
0.1827 	1
0.1834 	1
0.1841 	1
0.1848 	1
0.1855 	1
0.1862 	1
0.1869 	1
0.1876 	1
0.1883 	1
0.189 	1
0.1897 	1
0.1904 	1
0.1911 	1
0.1918 	1
0.1925 	1
0.1932 	1
0.1939 	1
0.1946 	1
0.1953 	1
0.196 	1
0.1967 	1
0.1974 	1
0.1981 	1
0.1988 	1
0.1995 	1
0.2002 	1
0.2009 	1
0.2016 	1
0.2023 	1
0.203 	1
0.2037 	1
0.2044 	1
0.2051 	1
0.2058 	1
0.2065 	1
0.2072 	1
0.2079 	1
0.2086 	1
0.2093 	1
0.21 	1
0.2107 	1
0.2114 	1
0.2121 	1
0.2128 	1
0.2135 	1
0.2142 	1
0.2149 	1
0.2156 	1
0.2163 	1
0.217 	1
0.2177 	1
0.2184 	1
0.2191 	1
0.2198 	1
0.2205 	1
0.2212 	1
0.2219 	1
0.2226 	1
0.2233 	1
0.224 	1
0.2247 	1
0.2254 	1
0.2261 	1
0.2268 	1
0.2275 	1
0.2282 	1
0.2289 	1
0.2296 	1
0.2303 	1
0.231 	1
0.2317 	1
0.2324 	1
0.2331 	1
0.2338 	1
0.2345 	1
0.2352 	1
0.2359 	1
0.2366 	1
0.2373 	1
0.238 	1
0.2387 	1
0.2394 	1
0.2401 	1
0.2408 	1
0.2415 	1
0.2422 	1
0.2429 	1
0.2436 	1
0.2443 	1
0.245 	1
0.2457 	1
0.2464 	1
0.2471 	1
0.2478 	1
0.2485 	1
0.2492 	1
0.2499 	1
0.2506 	1
0.2513 	1
0.252 	0.999999
0.2527 	0.999999
0.2534 	0.999998
0.2541 	0.999998
0.2548 	0.999997
0.2555 	0.999996
0.2562 	0.999996
0.2569 	0.999989
0.2576 	0.999986
0.2583 	0.999982
0.259 	0.999976
0.2597 	0.999966
0.2604 	0.999957
0.2611 	0.99995
0.2618 	0.999845
0.2625 	0.999781
0.2632 	0.99972
0.2639 	0.999633
0.2646 	0.999448
0.2653 	0.999287
0.266 	0.999157
0.2667 	0.996716
0.2674 	0.994455
0.2681 	0.992535
0.2688 	0.990358
0.2695 	0.984844
0.2702 	0.97961
0.2709 	0.975072
0.2716 	0.95526
0.2723 	0.927277
0.273 	0.902805
0.2737 	0.878333
0.2744 	0.825497
0.2751 	0.770757
0.2758 	0.717681
0.2765 	0.661244
0.2772 	0.599334
0.2779 	0.537947
0.2786 	0.476559
0.2793 	0.407774
0.28 	0.336973
0.2807 	0.265832
0.2814 	0.202507
0.2821 	0.163803
0.2828 	0.118631
0.2835 	0.0734589
0.2842 	0.0517304
0.2849 	0.0430269
0.2856 	0.0330398
0.2863 	0.0232977
0.287 	0.0188174
0.2877 	0.0121322
0.2884 	0.0054469
0.2891 	0.0019728
0.2898 	0.00171001
0.2905 	0.00134511
0.2912 	0.000939352
0.2919 	0.000788012
0.2926 	0.000494401
0.2933 	0.000200791
0.294 	1.19357e-05
0.2947 	1.16517e-05
0.2954 	9.96911e-06
0.2961 	7.2376e-06
0.2968 	6.30526e-06
0.2975 	4.09587e-06
0.2982 	1.80649e-06
0.2989 	7.76889e-09
0.2996 	8.25553e-09
0.3003 	7.68923e-09
0.301 	5.71902e-09
0.3017 	4.8841e-09
0.3024 	3.4085e-09
0.3031 	1.64282e-09
0.3038 	3.24886e-12
0.3045 	3.57512e-12
0.3052 	3.81421e-12
0.3059 	3.83541e-12
0.3066 	3.9942e-12
0.3073 	4.16246e-12
0.308 	4.26813e-12
0.3087 	4.37379e-12
0.3094 	4.73536e-12
0.3101 	5.11864e-12
0.3108 	5.51403e-12
0.3115 	5.83684e-12
0.3122 	6.06179e-12
0.3129 	6.31589e-12
0.3136 	6.56998e-12
0.3143 	6.66452e-12
0.315 	6.71555e-12
0.3157 	6.80294e-12
0.3164 	6.85854e-12
0.3171 	6.82922e-12
0.3178 	6.85012e-12
0.3185 	6.87101e-12
0.3192 	6.79635e-12
0.3199 	6.66858e-12
0.3206 	6.56604e-12
0.3213 	6.45659e-12
0.322 	6.21903e-12
0.3227 	6.03256e-12
0.3234 	5.84608e-12
0.3241 	5.58147e-12
0.3248 	5.23871e-12
0.3255 	4.91465e-12
0.3262 	4.59808e-12
0.3269 	4.25891e-12
0.3276 	3.92781e-12
0.3283 	3.59671e-12
0.329 	3.25637e-12
0.3297 	2.89941e-12
0.3304 	2.54067e-12
0.3311 	2.1806e-12
0.3318 	1.92549e-12
0.3325 	1.644e-12
0.3332 	1.36017e-12
0.3339 	1.10499e-12
0.3346 	9.54861e-13
0.3353 	7.9586e-13
0.336 	6.25029e-13
0.3367 	5.1803e-13
0.3374 	4.06292e-13
0.3381 	2.8554e-13
0.3388 	1.71892e-13
0.3395 	1.50612e-13
0.3402 	1.26466e-13
0.3409 	9.51547e-14
0.3416 	7.48579e-14
0.3423 	5.64968e-14
0.343 	3.3752e-14
0.3437 	1.10072e-14
0.3444 	8.76406e-15
0.3451 	7.91565e-15
0.3458 	5.97163e-15
0.3465 	4.58035e-15
0.3472 	3.57114e-15
0.3479 	2.02258e-15
0.3486 	4.74026e-16
0.3493 	1.44435e-16
0.35 	1.47313e-16
0.3507 	1.13078e-16
0.3514 	8.52498e-17
0.3521 	7.09586e-17
0.3528 	4.10605e-17
0.3535 	1.11623e-17
0.3542 	5.25484e-19
0.3549 	5.89959e-19
0.3556 	4.82581e-19
0.3563 	3.55609e-19
0.357 	3.17242e-19
0.3577 	1.90464e-19
0.3584 	6.36855e-20
0.3591 	3.2954e-22
0.3598 	3.99151e-22
0.3605 	3.52121e-22
0.3612 	2.58436e-22
0.3619 	2.39742e-22
0.3626 	1.4904e-22
0.3633 	5.83374e-23
0.364 	3.02323e-26
0.3647 	3.75593e-26
0.3654 	3.55181e-26
0.3661 	2.64508e-26
0.3668 	2.43341e-26
0.3675 	1.58098e-26
0.3682 	6.95744e-27
0.3689 	2.03114e-30
0.3696 	2.53869e-30
0.3703 	2.55862e-30
0.371 	1.9284e-30
0.3717 	1.69332e-30
0.3724 	1.18641e-30
0.3731 	5.71311e-31
0.3738 	1.39538e-34
0.3745 	1.76167e-34
0.3752 	1.89458e-34
0.3759 	1.44402e-34
0.3766 	1.2134e-34
0.3773 	9.11917e-35
0.378 	4.71731e-35
0.3787 	3.15449e-36
0.3794 	1.22283e-38
0.3801 	1.40494e-38
0.3808 	1.08204e-38
0.3815 	8.71896e-39
0.3822 	6.99654e-39
0.3829 	3.83714e-39
0.3836 	6.77738e-40
0.3843 	8.34322e-43
0.385 	1.02478e-42
0.3857 	7.96891e-43
0.3864 	6.16818e-43
0.3871 	5.26374e-43
0.3878 	3.03085e-43
0.3885 	7.9796e-44
0.3892 	5.55947e-47
0.3899 	6.88785e-47
0.3906 	5.72926e-47
0.3913 	4.26634e-47
0.392 	3.85783e-47
0.3927 	2.31483e-47
0.3934 	7.71835e-48
0.3941 	3.61926e-51
0.3948 	4.52273e-51
0.3955 	4.02216e-51
0.3962 	2.95999e-51
0.3969 	2.75584e-51
0.3976 	1.71318e-51
0.3983 	6.70508e-52
0.399 	2.30944e-55
0.3997 	2.9111e-55
0.4004 	2.76677e-55
0.4011 	2.06293e-55
0.4018 	1.90194e-55
0.4025 	1.23458e-55
0.4032 	5.43298e-56
0.4039 	1.4501e-59
0.4046 	1.84447e-59
0.4053 	1.87286e-59
0.406 	1.41326e-59
0.4067 	1.24381e-59
0.4074 	8.7102e-60
0.4081 	4.19428e-60
0.4088 	8.99013e-64
0.4095 	1.15466e-63
0.4102 	1.25245e-63
0.4109 	9.55586e-64
0.4116 	8.0455e-64
0.4123 	6.04516e-64
0.413 	3.1271e-64
0.4137 	2.09033e-65
0.4144 	7.16062e-68
0.4151 	8.29852e-68
0.4158 	6.39649e-68
0.4165 	5.16216e-68
0.4172 	4.14209e-68
0.4179 	2.27164e-68
0.4186 	4.01191e-69
0.4193 	4.40525e-72
0.42 	5.45702e-72
0.4207 	4.24628e-72
0.4214 	3.2907e-72
0.4221 	2.80819e-72
0.4228 	1.61694e-72
0.4235 	4.25688e-73
0.4242 	2.68953e-76
0.4249 	3.35861e-76
0.4256 	2.79751e-76
0.4263 	2.08524e-76
0.427 	1.88573e-76
0.4277 	1.1315e-76
0.4284 	3.77268e-77
0.4291 	1.6291e-80
0.4298 	2.05229e-80
0.4305 	1.82903e-80
0.4312 	1.34718e-80
0.4319 	1.25455e-80
0.4326 	7.7989e-81
0.4333 	3.05232e-81
0.434 	9.78458e-85
0.4347 	1.2444e-84
0.4354 	1.18634e-84
0.4361 	8.8526e-85
0.4368 	8.17266e-85
0.4375 	5.30014e-85
0.4382 	2.33239e-85
0.4389 	5.8241e-89
0.4396 	7.48359e-89
0.4403 	7.6312e-89
0.441 	5.76296e-89
0.4417 	5.07883e-89
0.4424 	3.5541e-89
0.4431 	1.71142e-89
0.4438 	3.43437e-93
0.4445 	4.46219e-93
0.4452 	4.8675e-93
0.4459 	3.71653e-93
0.4466 	3.1333e-93
0.4473 	2.35315e-93
0.448 	1.21725e-93
0.4487 	8.13546e-95
0.4494 	2.63776e-97
0.4501 	3.07876e-97
0.4508 	2.37477e-97
0.4515 	1.91897e-97
0.4522 	1.5394e-97
0.4529 	8.4425e-98
0.4536 	1.49095e-98
0.4543 	1.54598e-101
0.455 	1.93154e-101
0.4557 	1.50397e-101
0.4564 	1.1669e-101
0.4571 	9.95795e-102
0.4578 	5.7337e-102
0.4585 	1.50946e-102
0.4592 	8.98482e-106
0.4599 	1.13211e-105
0.4606 	9.44417e-106
0.4613 	7.04717e-106
0.462 	6.37418e-106
0.4627 	3.8247e-106
0.4634 	1.27522e-106
0.4641 	3.12837e-111
0.4648 	-8.05157e-110
0.4655 	-4.57337e-110
0.4662 	3.64187e-110
0.4669 	4.04017e-110
0.4676 	2.51e-110
0.4683 	9.79828e-111
0.469 	-1.16854e-110
0.4697 	-4.42972e-110
0.4704 	-3.96407e-110
0.4711 	-7.03292e-111
0.4718 	-1.97324e-113
0.4725 	-1.98257e-113
0.4732 	-2.09482e-113
0.4739 	-1.95921e-111
0.4746 	-1.10008e-110
0.4753 	-1.22913e-110
0.476 	-3.24693e-111
0.4767 	-9.45269e-114
0.4774 	-7.07971e-114
0.4781 	-6.61982e-114
0.4788 	-1.73955e-112
0.4795 	-2.52302e-111
0.4802 	-3.5295e-111
0.4809 	-1.17951e-111
0.4816 	-2.97387e-114
0.4823 	-1.88096e-114
0.483 	-1.72922e-114
0.4837 	-1.57748e-114
0.4844 	-5.45883e-112
0.4851 	-9.6456e-112
0.4858 	-3.78122e-112
0.4865 	-8.48959e-115
0.4872 	-4.65289e-115
0.4879 	-4.25582e-115
0.4886 	-3.85875e-115
0.4893 	-1.11613e-112
0.49 	-2.53187e-112
0.4907 	-1.11553e-112
0.4914 	-2.29454e-115
0.4921 	-1.10762e-115
0.4928 	-1.01064e-115
0.4935 	-9.13653e-116
0.4942 	-2.14302e-113
0.4949 	-5.46301e-113
0.4956 	-3.09038e-113
0.4963 	-5.94454e-116
0.497 	-2.56e-116
0.4977 	-2.33209e-116
0.4984 	-2.10418e-116
0.4991 	-3.80654e-114
0.4998 	-1.138e-113
0.5005 	-8.13193e-114
0.5012 	-5.55229e-115
0.5019 	-5.7637e-117
0.5026 	-5.24399e-117
0.5033 	-4.72428e-117
0.504 	-6.05333e-115
0.5047 	-2.28803e-114
0.5054 	-2.04723e-114
0.5061 	-3.63815e-115
0.5068 	-1.32475e-117
0.5075 	-1.15079e-117
0.5082 	-1.03541e-117
0.5089 	-7.90468e-116
0.5096 	-4.43544e-115
0.5103 	-4.95548e-115
0.511 	-1.30894e-115
0.5117 	-3.50348e-118
0.5124 	-2.46709e-118
0.5131 	-2.21727e-118
0.5138 	-5.70042e-117
0.5145 	-8.27401e-116
0.5152 	-1.15748e-115
0.5159 	-3.86747e-116
0.5166 	-8.74995e-119
0.5173 	-5.17085e-119
0.518 	-4.64277e-119
0.5187 	-4.1147e-119
0.5194 	-1.48044e-116
0.5201 	-2.61602e-116
0.5208 	-1.02538e-116
0.5215 	-2.08473e-119
0.5222 	-1.06026e-119
0.5229 	-9.51184e-120
0.5236 	-8.42109e-120
0.5243 	-2.52732e-117
0.525 	-5.73355e-117
0.5257 	-2.52593e-117
0.5264 	-4.76952e-120
0.5271 	-2.12809e-120
0.5278 	-1.9078e-120
0.5285 	-1.6875e-120
0.5292 	-4.07979e-118
0.5299 	-1.04012e-117
0.5306 	-5.88354e-118
0.5313 	-1.05258e-120
0.532 	-4.18348e-121
0.5327 	-3.74814e-121
0.5334 	-3.31279e-121
0.5341 	-6.12729e-119
0.5348 	-1.83203e-118
0.5355 	-1.30909e-118
0.5362 	-8.92504e-120
0.5369 	-8.05896e-122
0.5376 	-7.21668e-122
0.5383 	-6.3744e-122
0.539 	-8.27981e-120
0.5397 	-3.13008e-119
0.5404 	-2.80062e-119
0.5411 	-4.97503e-120
0.5418 	-1.59415e-122
0.5425 	-1.36243e-122
0.5432 	-1.2028e-122
0.5439 	-9.22921e-121
0.5446 	-5.17985e-120
0.5453 	-5.78717e-120
0.546 	-1.52833e-120
0.5467 	-3.71884e-123
0.5474 	-2.52317e-123
0.5481 	-2.22666e-123
0.5488 	-5.70396e-122
0.5495 	-8.28407e-121
0.5502 	-1.15889e-120
0.5509 	-3.87178e-121
0.5516 	-8.14471e-124
0.5523 	-4.58605e-124
0.553 	-4.04597e-124
0.5537 	-3.5059e-124
0.5544 	-1.27595e-121
0.5551 	-2.25471e-121
0.5558 	-8.837e-122
0.5565 	-1.69853e-124
0.5572 	-8.18434e-125
0.5579 	-7.21922e-125
0.5586 	-6.2541e-125
0.5593 	-1.88241e-122
0.56 	-4.27054e-122
0.5607 	-1.88131e-122
0.5614 	-3.40175e-125
0.5621 	-1.43473e-125
0.5628 	-1.26544e-125
0.5635 	-1.09616e-125
0.5642 	-2.63595e-123
0.5649 	-6.72029e-123
0.5656 	-3.80129e-123
0.5663 	-6.57968e-126
0.567 	-2.47161e-126
0.5677 	-2.18002e-126
0.5684 	-1.88842e-126
0.5691 	-3.44667e-124
0.5698 	-1.03053e-123
0.5705 	-7.36361e-124
0.5712 	-5.01742e-125
0.5719 	-4.18596e-127
0.5726 	-3.69249e-127
0.5733 	-3.19902e-127
0.574 	-4.06934e-125
0.5747 	-1.53832e-124
0.5754 	-1.37639e-124
0.5761 	-2.44466e-125
0.5768 	-7.29442e-128
0.5775 	-6.15165e-128
0.5782 	-5.33083e-128
0.5789 	-3.97692e-126
0.5796 	-2.23182e-125
0.5803 	-2.49347e-125
0.581 	-6.58458e-126
0.5817 	-1.52808e-128
0.5824 	-1.00843e-128
0.5831 	-8.74173e-129
0.5838 	-2.16275e-127
0.5845 	-3.13968e-126
0.5852 	-4.39217e-126
0.5859 	-1.46735e-126
0.5866 	-2.991e-129
0.5873 	-1.62719e-129
0.588 	-1.41118e-129
0.5887 	-1.19516e-129
0.5894 	-4.26759e-127
0.5901 	-7.541e-127
0.5908 	-2.95554e-127
0.5915 	-5.56761e-130
0.5922 	-2.58543e-130
0.5929 	-2.24337e-130
0.5936 	-1.90131e-130
0.5943 	-5.57361e-128
0.595 	-1.26441e-127
0.5957 	-5.57011e-128
0.5964 	-9.95661e-131
0.5971 	-4.04646e-131
0.5978 	-3.51322e-131
0.5985 	-2.97997e-131
0.5992 	-6.93047e-129
0.5999 	-1.7668e-128
0.6006 	-9.99373e-129
0.6013 	-1.72166e-131
0.602 	-6.24044e-132
0.6027 	-5.42172e-132
0.6034 	-4.603e-132
0.6041 	-8.07082e-130
0.6048 	-2.4129e-129
0.6055 	-1.72411e-129
0.6062 	-1.17476e-130
0.6069 	-9.48623e-133
0.6076 	-8.24777e-133
0.6083 	-7.00931e-133
0.609 	-8.51126e-131
0.6097 	-3.21696e-130
0.6104 	-2.87829e-130
0.6111 	-5.11235e-131
0.6118 	-1.48326e-133
0.6125 	-1.23719e-133
0.6132 	-1.05255e-133
0.6139 	-7.45101e-132
0.6146 	-4.18008e-131
0.6153 	-4.67002e-131
0.616 	-1.23325e-131
0.6167 	-2.82704e-134
0.6174 	-1.83048e-134
0.6181 	-1.55909e-134
0.6188 	-3.64195e-133
0.6195 	-5.28077e-132
0.6202 	-7.38713e-132
0.6209 	-2.46795e-132
0.6216 	-5.01934e-135
0.6223 	-2.67206e-135
0.623 	-2.27866e-135
0.6237 	-1.88526e-135
0.6244 	-6.46249e-133
0.6251 	-1.14189e-132
0.6258 	-4.47546e-133
0.6265 	-8.47089e-136
0.6272 	-3.84942e-136
0.6279 	-3.28684e-136
0.6286 	-2.72426e-136
0.6293 	-7.61792e-134
0.63 	-1.72805e-133
0.6307 	-7.61266e-134
0.6314 	-1.37427e-136
0.6321 	-5.47425e-137
0.6328 	-4.68036e-137
0.6335 	-3.88647e-137
0.6342 	-8.56997e-135
0.6349 	-2.18452e-134
0.6356 	-1.23566e-134
0.6363 	-2.15827e-137
0.637 	-7.68671e-138
0.6377 	-6.58088e-138
0.6384 	-5.47504e-138
0.6391 	-9.04988e-136
0.6398 	-2.70516e-135
0.6405 	-1.93294e-135
0.6412 	-1.31752e-136
0.6419 	-1.06596e-138
0.6426 	-9.13877e-139
0.6433 	-7.61795e-139
0.644 	-8.67328e-137
0.6447 	-3.27733e-136
0.6454 	-2.93226e-136
0.6461 	-5.20883e-137
0.6468 	-1.51745e-139
0.6475 	-1.25366e-139
0.6482 	-1.04711e-139
0.6489 	-6.91542e-138
0.6496 	-3.87762e-137
0.6503 	-4.33199e-137
0.651 	-1.14406e-137
0.6517 	-2.65522e-140
0.6524 	-1.6992e-140
0.6531 	-1.4221e-140
0.6538 	-3.08763e-139
0.6545 	-4.46907e-138
0.6552 	-6.25136e-138
0.6559 	-2.08861e-138
0.6566 	-4.32248e-141
0.6573 	-2.2759e-141
0.658 	-1.90862e-141
0.6587 	-1.54134e-141
0.6594 	-4.99846e-139
0.6601 	-8.83137e-139
0.6608 	-3.46145e-139
0.6615 	-6.6893e-142
0.6622 	-3.01281e-142
0.6629 	-2.53177e-142
0.6636 	-2.05073e-142
0.6643 	-5.39396e-140
0.665 	-1.22343e-139
0.6657 	-5.3898e-140
0.6664 	-9.95796e-143
0.6671 	-3.9424e-143
0.6678 	-3.31973e-143
0.6685 	-2.69705e-143
0.6692 	-5.5634e-141
0.6699 	-1.41792e-140
0.6706 	-8.02051e-141
0.6713 	-1.43626e-143
0.672 	-5.1003e-144
0.6727 	-4.30357e-144
0.6734 	-3.50685e-144
0.6741 	-5.3937e-142
0.6748 	-1.61192e-141
0.6755 	-1.15177e-141
0.6762 	-7.85528e-143
0.6769 	-6.52451e-145
0.6776 	-5.5166e-145
0.6783 	-4.50868e-145
0.679 	-4.75173e-143
0.6797 	-1.79489e-142
0.6804 	-1.60588e-142
0.6811 	-2.85319e-143
0.6818 	-8.54473e-146
0.6825 	-6.99291e-146
0.6832 	-5.7321e-146
0.6839 	-3.48704e-144
0.6846 	-1.95395e-143
0.6853 	-2.18282e-143
0.686 	-5.76535e-144
0.6867 	-1.37896e-146
0.6874 	-8.76641e-147
0.6881 	-7.20689e-147
0.6888 	-1.43632e-145
0.6895 	-2.07418e-144
0.6902 	-2.90119e-144
0.6909 	-9.6937e-145
0.6916 	-2.07096e-147
0.6923 	-1.08708e-147
0.693 	-8.96322e-148
0.6937 	-7.05563e-148
0.6944 	-2.13936e-145
0.6951 	-3.7795e-145
0.6958 	-1.48145e-145
0.6965 	-3.08676e-148
0.6972 	-1.63365e-148
0.6979 	-1.42755e-148
0.6986 	-1.22145e-148
0.6993 	-3.81808e-146
0.7 	-8.66255e-146
