0 	1
0.0007 	1
0.0014 	1
0.0021 	1
0.0028 	1
0.0035 	1
0.0042 	1
0.0049 	1
0.0056 	1
0.0063 	1
0.007 	1
0.0077 	1
0.0084 	1
0.0091 	1
0.0098 	1
0.0105 	1
0.0112 	1
0.0119 	1
0.0126 	1
0.0133 	1
0.014 	1
0.0147 	1
0.0154 	1
0.0161 	1
0.0168 	1
0.0175 	1
0.0182 	1
0.0189 	1
0.0196 	1
0.0203 	1
0.021 	1
0.0217 	1
0.0224 	1
0.0231 	1
0.0238 	1
0.0245 	1
0.0252 	1
0.0259 	1
0.0266 	1
0.0273 	1
0.028 	1
0.0287 	1
0.0294 	1
0.0301 	1
0.0308 	1
0.0315 	1
0.0322 	1
0.0329 	1
0.0336 	1
0.0343 	1
0.035 	1
0.0357 	1
0.0364 	1
0.0371 	1
0.0378 	1
0.0385 	1
0.0392 	1
0.0399 	1
0.0406 	1
0.0413 	1
0.042 	1
0.0427 	1
0.0434 	1
0.0441 	1
0.0448 	1
0.0455 	1
0.0462 	1
0.0469 	1
0.0476 	1
0.0483 	1
0.049 	1
0.0497 	1
0.0504 	1
0.0511 	1
0.0518 	1
0.0525 	1
0.0532 	1
0.0539 	1
0.0546 	1
0.0553 	1
0.056 	1
0.0567 	1
0.0574 	1
0.0581 	1
0.0588 	1
0.0595 	1
0.0602 	1
0.0609 	1
0.0616 	1
0.0623 	1
0.063 	1
0.0637 	1
0.0644 	1
0.0651 	1
0.0658 	1
0.0665 	1
0.0672 	1
0.0679 	1
0.0686 	1
0.0693 	1
0.07 	1
0.0707 	1
0.0714 	1
0.0721 	1
0.0728 	1
0.0735 	1
0.0742 	1
0.0749 	1
0.0756 	1
0.0763 	1
0.077 	1
0.0777 	1
0.0784 	1
0.0791 	1
0.0798 	1
0.0805 	1
0.0812 	1
0.0819 	1
0.0826 	1
0.0833 	1
0.084 	1
0.0847 	1
0.0854 	1
0.0861 	1
0.0868 	1
0.0875 	1
0.0882 	1
0.0889 	1
0.0896 	1
0.0903 	1
0.091 	1
0.0917 	1
0.0924 	1
0.0931 	1
0.0938 	1
0.0945 	1
0.0952 	1
0.0959 	1
0.0966 	1
0.0973 	1
0.098 	1
0.0987 	1
0.0994 	1
0.1001 	1
0.1008 	1
0.1015 	1
0.1022 	1
0.1029 	1
0.1036 	1
0.1043 	1
0.105 	1
0.1057 	1
0.1064 	1
0.1071 	1
0.1078 	1
0.1085 	1
0.1092 	1
0.1099 	1
0.1106 	1
0.1113 	1
0.112 	1
0.1127 	1
0.1134 	1
0.1141 	1
0.1148 	1
0.1155 	1
0.1162 	1
0.1169 	1
0.1176 	1
0.1183 	1
0.119 	1
0.1197 	1
0.1204 	1
0.1211 	1
0.1218 	1
0.1225 	1
0.1232 	1
0.1239 	1
0.1246 	1
0.1253 	1
0.126 	1
0.1267 	1
0.1274 	1
0.1281 	1
0.1288 	1
0.1295 	1
0.1302 	1
0.1309 	1
0.1316 	1
0.1323 	1
0.133 	1
0.1337 	1
0.1344 	1
0.1351 	1
0.1358 	1
0.1365 	1
0.1372 	1
0.1379 	1
0.1386 	1
0.1393 	1
0.14 	1
0.1407 	1
0.1414 	1
0.1421 	1
0.1428 	1
0.1435 	1
0.1442 	1
0.1449 	1
0.1456 	1
0.1463 	1
0.147 	1
0.1477 	1
0.1484 	1
0.1491 	1
0.1498 	1
0.1505 	1
0.1512 	1
0.1519 	1
0.1526 	1
0.1533 	1
0.154 	1
0.1547 	1
0.1554 	1
0.1561 	1
0.1568 	1
0.1575 	1
0.1582 	1
0.1589 	1
0.1596 	1
0.1603 	1
0.161 	1
0.1617 	1
0.1624 	1
0.1631 	1
0.1638 	1
0.1645 	1
0.1652 	1
0.1659 	1
0.1666 	1
0.1673 	1
0.168 	1
0.1687 	1
0.1694 	1
0.1701 	1
0.1708 	1
0.1715 	1
0.1722 	1
0.1729 	1
0.1736 	1
0.1743 	1
0.175 	1
0.1757 	1
0.1764 	1
0.1771 	1
0.1778 	1
0.1785 	1
0.1792 	1
0.1799 	1
0.1806 	1
0.1813 	1
0.182 	1
0.1827 	1
0.1834 	1
0.1841 	1
0.1848 	1
0.1855 	1
0.1862 	1
0.1869 	1
0.1876 	1
0.1883 	1
0.189 	1
0.1897 	1
0.1904 	1
0.1911 	1
0.1918 	1
0.1925 	1
0.1932 	1
0.1939 	1
0.1946 	1
0.1953 	1
0.196 	1
0.1967 	1
0.1974 	1
0.1981 	1
0.1988 	1
0.1995 	1
0.2002 	1
0.2009 	1
0.2016 	1
0.2023 	1
0.203 	1
0.2037 	1
0.2044 	1
0.2051 	1
0.2058 	1
0.2065 	1
0.2072 	1
0.2079 	1
0.2086 	1
0.2093 	1
0.21 	0.999999
0.2107 	0.999999
0.2114 	0.999998
0.2121 	0.999997
0.2128 	0.999996
0.2135 	0.999995
0.2142 	0.999994
0.2149 	0.999992
0.2156 	0.999987
0.2163 	0.999975
0.217 	0.999962
0.2177 	0.99995
0.2184 	0.999937
0.2191 	0.999925
0.2198 	0.999904
0.2205 	0.999869
0.2212 	0.999696
0.2219 	0.999522
0.2226 	0.999349
0.2233 	0.999176
0.224 	0.999003
0.2247 	0.99875
0.2254 	0.998324
0.2261 	0.994496
0.2268 	0.990278
0.2275 	0.98606
0.2282 	0.981841
0.2289 	0.977623
0.2296 	0.972535
0.2303 	0.961013
0.231 	0.928642
0.2317 	0.888988
0.2324 	0.849335
0.2331 	0.809682
0.2338 	0.770029
0.2345 	0.730376
0.2352 	0.65245
0.2359 	0.583337
0.2366 	0.520808
0.2373 	0.458277
0.238 	0.395747
0.2387 	0.333217
0.2394 	0.270687
0.2401 	0.223843
0.2408 	0.184961
0.2415 	0.154857
0.2422 	0.124752
0.2429 	0.0946473
0.2436 	0.0645425
0.2443 	0.0344376
0.245 	0.0223791
0.2457 	0.018188
0.2464 	0.0149502
0.2471 	0.0117123
0.2478 	0.00847432
0.2485 	0.00523637
0.2492 	0.00199841
0.2499 	0.000455986
0.2506 	0.000380122
0.2513 	0.00031265
0.252 	0.000245177
0.2527 	0.000177705
0.2534 	0.000110232
0.2541 	4.27587e-05
0.2548 	1.34015e-06
0.2555 	1.17039e-06
0.2562 	9.67158e-07
0.2569 	7.63934e-07
0.2576 	5.60711e-07
0.2583 	3.57488e-07
0.259 	1.54264e-07
0.2597 	4.46048e-10
0.2604 	4.17179e-10
0.2611 	3.51245e-10
0.2618 	2.85921e-10
0.2625 	2.206e-10
0.2632 	1.55279e-10
0.2639 	8.99576e-11
0.2646 	3.11887e-11
0.2653 	3.14095e-11
0.266 	3.11764e-11
0.2667 	3.07949e-11
0.2674 	3.04119e-11
0.2681 	3.0029e-11
0.2688 	2.9646e-11
0.2695 	2.92631e-11
0.2702 	2.80283e-11
0.2709 	2.65248e-11
0.2716 	2.4877e-11
0.2723 	2.32317e-11
0.273 	2.15865e-11
0.2737 	1.99412e-11
0.2744 	1.8296e-11
0.2751 	1.62365e-11
0.2758 	1.42874e-11
0.2765 	1.26335e-11
0.2772 	1.09849e-11
0.2779 	9.33631e-12
0.2786 	7.68771e-12
0.2793 	6.03911e-12
0.28 	4.93406e-12
0.2807 	4.09847e-12
0.2814 	3.47144e-12
0.2821 	2.84759e-12
0.2828 	2.22375e-12
0.2835 	1.59991e-12
0.2842 	9.76065e-13
0.2849 	6.29352e-13
0.2856 	5.14909e-13
0.2863 	4.29292e-13
0.287 	3.44322e-13
0.2877 	2.59351e-13
0.2884 	1.74381e-13
0.2891 	8.94109e-14
0.2898 	3.50394e-14
0.2905 	2.85443e-14
0.2912 	2.37277e-14
0.2919 	1.89583e-14
0.2926 	1.41925e-14
0.2933 	9.42675e-15
0.294 	4.66098e-15
0.2947 	1.0073e-15
0.2954 	8.25343e-16
0.2961 	6.80721e-16
0.2968 	5.43932e-16
0.2975 	4.07539e-16
0.2982 	2.71146e-16
0.2989 	1.34754e-16
0.2996 	1.1578e-17
0.3003 	9.79195e-18
0.301 	8.03186e-18
0.3017 	6.4389e-18
0.3024 	4.85502e-18
0.3031 	3.27114e-18
0.3038 	1.68726e-18
0.3045 	1.03379e-19
0.3052 	2.85289e-20
0.3059 	2.34629e-20
0.3066 	1.89106e-20
0.3073 	1.43988e-20
0.308 	9.88689e-21
0.3087 	5.37502e-21
0.3094 	8.63157e-22
0.3101 	1.25065e-23
0.3108 	1.03644e-23
0.3115 	8.40095e-24
0.3122 	6.46172e-24
0.3129 	4.52249e-24
0.3136 	2.58326e-24
0.3143 	6.44029e-25
0.315 	8.4415e-28
0.3157 	7.01489e-28
0.3164 	5.71792e-28
0.3171 	4.44026e-28
0.3178 	3.1626e-28
0.3185 	1.88494e-28
0.3192 	6.07272e-29
0.3199 	5.1247e-32
0.3206 	4.38689e-32
0.3213 	3.59472e-32
0.322 	2.8164e-32
0.3227 	2.03807e-32
0.3234 	1.25974e-32
0.3241 	4.8141e-33
0.3248 	2.95913e-36
0.3255 	2.60845e-36
0.3262 	2.14871e-36
0.3269 	1.69698e-36
0.3276 	1.24587e-36
0.3283 	7.94756e-37
0.329 	3.43642e-37
0.3297 	1.67955e-40
0.3304 	1.52369e-40
0.3311 	1.25896e-40
0.3318 	1.00146e-40
0.3325 	7.45005e-41
0.3332 	4.88551e-41
0.3339 	2.32098e-41
0.3346 	9.68451e-45
0.3353 	9.00964e-45
0.336 	7.45431e-45
0.3367 	5.96968e-45
0.3374 	4.49507e-45
0.3381 	3.02047e-45
0.3388 	1.54586e-45
0.3395 	7.12575e-47
0.3402 	5.52021e-49
0.3409 	4.56902e-49
0.3416 	3.68221e-49
0.3423 	2.80375e-49
0.343 	1.92528e-49
0.3437 	1.04681e-49
0.3444 	1.68342e-50
0.3451 	3.54189e-53
0.3458 	2.92969e-53
0.3465 	2.37511e-53
0.3472 	1.82721e-53
0.3479 	1.27931e-53
0.3486 	7.31416e-54
0.3493 	1.83518e-54
0.35 	2.3733e-57
0.3507 	1.95997e-57
0.3514 	1.59785e-57
0.3521 	1.24105e-57
0.3528 	8.84248e-58
0.3535 	5.27449e-58
0.3542 	1.70649e-58
0.3549 	1.61218e-61
0.3556 	1.3563e-61
0.3563 	1.11156e-61
0.357 	8.71043e-62
0.3577 	6.30531e-62
0.3584 	3.90018e-62
0.3591 	1.49506e-62
0.3598 	1.12925e-65
0.3605 	9.63608e-66
0.3612 	7.93912e-66
0.3619 	6.27121e-66
0.3626 	4.60553e-66
0.3633 	2.93985e-66
0.364 	1.27417e-66
0.3647 	8.13193e-70
0.3654 	7.03833e-70
0.3661 	5.80444e-70
0.3668 	4.61815e-70
0.3675 	3.43653e-70
0.3682 	2.25491e-70
0.3689 	1.07328e-70
0.3696 	6.02861e-74
0.3703 	5.28431e-74
0.371 	4.34869e-74
0.3717 	3.48345e-74
0.3724 	2.62354e-74
0.3731 	1.76364e-74
0.3738 	9.03733e-75
0.3745 	4.38287e-76
0.3752 	-2.10898e-77
0.3759 	-8.93292e-78
0.3766 	-1.45478e-77
0.3773 	-1.5193e-77
0.378 	-1.58382e-77
0.3787 	-1.64834e-77
0.3794 	-1.71285e-77
0.3801 	-8.66288e-77
0.3808 	-2.03074e-77
0.3815 	-2.43423e-77
0.3822 	-2.43572e-77
0.3829 	-2.43722e-77
0.3836 	-2.43872e-77
0.3843 	-2.44021e-77
0.385 	-1.39659e-76
0.3857 	-2.45523e-77
0.3864 	-2.48349e-77
0.3871 	-2.48416e-77
0.3878 	-2.48484e-77
0.3885 	-2.48551e-77
0.3892 	-2.48618e-77
0.3899 	-1.13466e-76
0.3906 	-2.41244e-77
0.3913 	-2.05941e-77
0.392 	-2.05934e-77
0.3927 	-2.05927e-77
0.3934 	-2.0592e-77
0.3941 	-2.05913e-77
0.3948 	-7.26936e-77
0.3955 	-2.02988e-77
0.3962 	-1.50014e-77
0.3969 	-1.46187e-77
0.3976 	-1.46141e-77
0.3983 	-1.46095e-77
0.399 	-1.46048e-77
0.3997 	-3.71839e-77
0.4004 	-2.32559e-77
0.4011 	-1.01827e-77
0.4018 	-9.14231e-78
0.4025 	-9.13677e-78
0.4032 	-9.13122e-78
0.4039 	-9.12568e-78
0.4046 	-1.44651e-77
0.4053 	-2.3074e-77
0.406 	-6.39366e-78
0.4067 	-5.12964e-78
0.4074 	-5.12489e-78
0.4081 	-5.12013e-78
0.4088 	-5.11537e-78
0.4095 	-5.11062e-78
0.4102 	-1.76621e-77
0.4109 	-3.72015e-78
0.4116 	-2.61653e-78
0.4123 	-2.61313e-78
0.413 	-2.60973e-78
0.4137 	-2.60633e-78
0.4144 	-2.60293e-78
0.4151 	-1.13775e-77
0.4158 	-2.00774e-78
0.4165 	-1.22591e-78
0.4172 	-1.22378e-78
0.4179 	-1.22165e-78
0.4186 	-1.21952e-78
0.4193 	-1.21739e-78
0.42 	-6.4206e-78
0.4207 	-1.00665e-78
0.4214 	-5.32092e-79
0.4221 	-5.30897e-79
0.4228 	-5.29702e-79
0.4235 	-5.28507e-79
0.4242 	-5.27311e-79
0.4249 	-2.27791e-78
0.4256 	-4.70107e-79
0.4263 	-2.15504e-79
0.427 	-2.14896e-79
0.4277 	-2.14289e-79
0.4284 	-2.13681e-79
0.4291 	-2.13074e-79
0.4298 	-7.19543e-79
0.4305 	-2.05187e-79
0.4312 	-9.01506e-80
0.4319 	-8.16717e-80
0.4326 	-8.13893e-80
0.4333 	-8.1107e-80
0.434 	-8.08246e-80
0.4347 	-1.97736e-79
0.4354 	-1.23939e-79
0.4361 	-3.90367e-80
0.4368 	-2.93004e-80
0.4375 	-2.91796e-80
0.4382 	-2.90588e-80
0.4389 	-2.8938e-80
0.4396 	-4.42538e-80
0.4403 	-7.0213e-80
0.441 	-1.58995e-80
0.4417 	-9.96872e-81
0.4424 	-9.92082e-81
0.4431 	-9.87291e-81
0.4438 	-9.825e-81
0.4445 	-9.77709e-81
0.4452 	-3.2472e-80
0.4459 	-6.10185e-81
0.4466 	-3.22901e-81
0.4473 	-3.21128e-81
0.448 	-3.19355e-81
0.4487 	-3.17583e-81
0.4494 	-3.1581e-81
0.4501 	-1.32414e-80
0.4508 	-2.21284e-81
0.4515 	-9.99072e-82
0.4522 	-9.92913e-82
0.4529 	-9.86755e-82
0.4536 	-9.80596e-82
0.4543 	-9.74438e-82
0.455 	-4.92209e-81
0.4557 	-7.60744e-82
0.4564 	-2.96087e-82
0.4571 	-2.94068e-82
0.4578 	-2.92048e-82
0.4585 	-2.90028e-82
0.4592 	-2.88009e-82
0.4599 	-1.19151e-81
0.4606 	-2.48698e-82
0.4613 	-8.4244e-83
0.462 	-8.36156e-83
0.4627 	-8.29872e-83
0.4634 	-8.23588e-83
0.4641 	-8.17304e-83
0.4648 	-2.64473e-82
0.4655 	-7.75317e-83
0.4662 	-2.66756e-83
0.4669 	-2.28701e-83
0.4676 	-2.26837e-83
0.4683 	-2.24974e-83
0.469 	-2.23111e-83
0.4697 	-5.23837e-83
0.4704 	-3.2899e-83
0.4711 	-9.07511e-84
0.4718 	-6.02687e-84
0.4725 	-5.97401e-84
0.4732 	-5.92115e-84
0.4739 	-5.86829e-84
0.4746 	-8.64492e-84
0.4753 	-1.36445e-83
0.476 	-2.87207e-84
0.4767 	-1.53236e-84
0.4774 	-1.51797e-84
0.4781 	-1.50357e-84
0.4788 	-1.48918e-84
0.4795 	-1.47478e-84
0.4802 	-4.70826e-84
0.4809 	-8.54826e-85
0.4816 	-3.76353e-85
0.4823 	-3.72581e-85
0.483 	-3.68809e-85
0.4837 	-3.65037e-85
0.4844 	-3.61265e-85
0.4851 	-1.45415e-84
0.4858 	-2.4101e-85
0.4865 	-8.93839e-86
0.4872 	-8.84304e-86
0.4879 	-8.74769e-86
0.4886 	-8.65234e-86
0.4893 	-8.55698e-86
0.49 	-4.14463e-85
0.4907 	-6.46975e-86
0.4914 	-2.0548e-86
0.4921 	-2.0315e-86
0.4928 	-2.00821e-86
0.4935 	-1.98491e-86
0.4942 	-1.96162e-86
0.4949 	-7.78078e-86
0.4956 	-1.65993e-86
0.4963 	-4.57623e-87
0.497 	-4.52115e-87
0.4977 	-4.46608e-87
0.4984 	-4.411e-87
0.4991 	-4.35592e-87
0.4998 	-1.35155e-86
0.5005 	-4.08249e-87
0.5012 	-1.19362e-87
0.5019 	-9.7556e-88
0.5026 	-9.62939e-88
0.5033 	-9.50317e-88
0.504 	-9.37695e-88
0.5047 	-2.11274e-87
0.5054 	-1.33012e-87
0.5061 	-3.4028e-88
0.5068 	-2.04253e-88
0.5075 	-2.01447e-88
0.5082 	-1.98641e-88
0.5089 	-1.95835e-88
0.5096 	-2.77749e-88
0.5103 	-4.35976e-88
0.511 	-8.86514e-89
0.5117 	-4.15258e-89
0.5124 	-4.09199e-89
0.5131 	-4.0314e-89
0.5138 	-3.97081e-89
0.5145 	-3.91022e-89
0.5152 	-1.1981e-88
0.5159 	-2.1567e-89
0.5166 	-8.20378e-90
0.5173 	-8.07662e-90
0.518 	-7.94945e-90
0.5187 	-7.82229e-90
0.5194 	-7.69512e-90
0.5201 	-2.96501e-89
0.5208 	-4.95913e-90
0.5215 	-1.57601e-90
0.5222 	-1.55005e-90
0.5229 	-1.52409e-90
0.5236 	-1.49813e-90
0.5243 	-1.47217e-90
0.525 	-6.80847e-90
0.5257 	-1.086e-90
0.5264 	-2.94613e-91
0.5271 	-2.89454e-91
0.5278 	-2.84295e-91
0.5285 	-2.79137e-91
0.5292 	-2.73978e-91
0.5299 	-1.03654e-90
0.5306 	-2.27673e-91
0.5313 	-5.36267e-92
0.532 	-5.26281e-92
0.5327 	-5.16296e-92
0.5334 	-5.0631e-92
0.5341 	-4.96325e-92
0.5348 	-1.46799e-91
0.5355 	-4.58636e-92
0.5362 	-1.19221e-92
0.5369 	-9.32277e-93
0.5376 	-9.13438e-93
0.5383 	-8.946e-93
0.539 	-8.75762e-93
0.5397 	-1.88218e-92
0.5404 	-1.18918e-92
0.5411 	-2.91947e-93
0.5418 	-1.61005e-93
0.5425 	-1.57539e-93
0.5432 	-1.54073e-93
0.5439 	-1.50607e-93
0.5446 	-2.04666e-93
0.5453 	-3.18547e-93
0.546 	-6.42069e-94
0.5467 	-2.71255e-94
0.5474 	-2.65033e-94
0.5481 	-2.58812e-94
0.5488 	-2.5259e-94
0.5495 	-2.46368e-94
0.5502 	-7.20134e-94
0.5509 	-1.31033e-94
0.5516 	-4.46101e-95
0.5523 	-4.35197e-95
0.553 	-4.24293e-95
0.5537 	-4.13389e-95
0.5544 	-4.02485e-95
0.5551 	-1.47332e-94
0.5558 	-2.52306e-95
0.5565 	-7.16597e-96
0.5572 	-6.97932e-96
0.5579 	-6.79268e-96
0.5586 	-6.60603e-96
0.5593 	-6.41939e-96
0.56 	-2.80909e-95
0.5607 	-4.62879e-96
0.5614 	-1.12505e-96
0.5621 	-1.09383e-96
0.5628 	-1.06261e-96
0.5635 	-1.03139e-96
0.5642 	-1.00017e-96
0.5649 	-3.574e-96
0.5656 	-8.1421e-97
0.5663 	-1.72737e-97
0.567 	-1.67632e-97
0.5677 	-1.62527e-97
0.5684 	-1.57422e-97
0.5691 	-1.52317e-97
0.5698 	-4.25063e-97
0.5705 	-1.37923e-97
0.5712 	-3.33627e-98
0.5719 	-2.51361e-98
0.5726 	-2.43196e-98
0.5733 	-2.35032e-98
0.574 	-2.26867e-98
0.5747 	-4.60407e-98
0.5754 	-2.92242e-98
0.5761 	-7.10475e-99
0.5768 	-3.69004e-99
0.5775 	-3.56229e-99
0.5782 	-3.43453e-99
0.5789 	-3.30678e-99
0.5796 	-4.27064e-99
0.5803 	-6.55923e-99
0.581 	-1.34175e-99
0.5817 	-5.30657e-100
0.5824 	-5.1109e-100
0.5831 	-4.91524e-100
0.5838 	-4.71957e-100
0.5845 	-4.52391e-100
0.5852 	-1.25126e-99
0.5859 	-2.34264e-100
0.5866 	-7.47993e-101
0.5873 	-7.1865e-101
0.588 	-6.89307e-101
0.5887 	-6.59963e-101
0.5894 	-6.3062e-101
0.5901 	-2.17052e-100
0.5908 	-3.85773e-101
0.5915 	-1.03402e-101
0.5922 	-9.9092e-102
0.5929 	-9.47817e-102
0.5936 	-9.04715e-102
0.5943 	-8.61612e-102
0.595 	-3.52311e-101
0.5957 	-6.0596e-102
0.5964 	-1.40266e-102
0.5971 	-1.34062e-102
0.5978 	-1.27859e-102
0.5985 	-1.21655e-102
0.5992 	-1.15452e-102
0.5999 	-3.84375e-102
0.6006 	-9.14348e-103
0.6013 	-1.86811e-103
0.602 	-1.78059e-103
0.6027 	-1.69308e-103
0.6034 	-1.60556e-103
0.6041 	-1.51805e-103
0.6048 	-3.93945e-103
0.6055 	-1.33173e-103
0.6062 	-3.16083e-104
0.6069 	-2.32297e-104
0.6076 	-2.20193e-104
0.6083 	-2.08089e-104
0.609 	-1.95984e-104
0.6097 	-3.70124e-104
0.6104 	-2.36103e-104
0.6111 	-5.87433e-105
0.6118 	-2.97832e-105
0.6125 	-2.81413e-105
0.6132 	-2.64993e-105
0.6139 	-2.48574e-105
0.6146 	-3.01296e-105
0.6153 	-4.53648e-105
0.616 	-9.64313e-106
0.6167 	-3.75458e-106
0.6174 	-3.53608e-106
0.6181 	-3.31759e-106
0.6188 	-3.09909e-106
0.6195 	-2.88059e-106
0.6202 	-7.46762e-106
0.6209 	-1.46364e-106
0.6216 	-4.65608e-107
0.6223 	-4.37075e-107
0.623 	-4.08543e-107
0.6237 	-3.8001e-107
0.6244 	-3.51477e-107
0.6251 	-1.1234e-106
0.6258 	-2.09851e-107
0.6265 	-5.68249e-108
0.6272 	-5.31677e-108
0.6279 	-4.95104e-108
0.6286 	-4.58532e-108
0.6293 	-4.21959e-108
0.63 	-1.58779e-107
0.6307 	-2.87615e-108
0.6314 	-6.82803e-109
0.6321 	-6.36777e-109
0.6328 	-5.90752e-109
0.6335 	-5.44726e-109
0.6342 	-4.987e-109
0.6349 	-1.52118e-108
0.6356 	-3.79609e-109
0.6363 	-8.08079e-110
0.637 	-7.51195e-110
0.6377 	-6.94311e-110
0.6384 	-6.37427e-110
0.6391 	-5.80544e-110
0.6398 	-1.3762e-109
0.6405 	-4.84886e-110
0.6412 	-1.19808e-110
0.6419 	-8.7318e-111
0.6426 	-8.0412e-111
0.6433 	-7.35059e-111
0.644 	-6.65999e-111
0.6447 	-1.14963e-110
0.6454 	-7.35995e-111
0.6461 	-1.9387e-111
0.6468 	-1.00043e-111
0.6475 	-9.18046e-112
0.6482 	-8.35665e-112
0.6489 	-7.53284e-112
0.6496 	-8.43326e-112
0.6503 	-1.23548e-111
0.651 	-2.79075e-112
0.6517 	-1.13012e-112
0.6524 	-1.03354e-112
0.6531 	-9.36963e-113
0.6538 	-8.40384e-113
0.6545 	-7.43804e-113
0.6552 	-1.79244e-112
0.6559 	-3.73181e-113
0.6566 	-1.25903e-113
0.6573 	-1.14772e-113
0.658 	-1.03642e-113
0.6587 	-9.2512e-114
0.6594 	-8.13817e-114
0.6601 	-2.38894e-113
0.6608 	-4.73179e-114
0.6615 	-1.38359e-114
0.6622 	-1.25747e-114
0.6629 	-1.13135e-114
0.6636 	-1.00523e-114
0.6643 	-8.79114e-115
0.665 	-3.00358e-114
0.6657 	-5.75473e-115
0.6664 	-1.50012e-115
0.6671 	-1.35957e-115
0.6678 	-1.21903e-115
0.6685 	-1.07848e-115
0.6692 	-9.37932e-116
0.6699 	-2.58383e-115
0.6706 	-6.76115e-116
0.6713 	-1.60491e-116
0.672 	-1.45084e-116
0.6727 	-1.29678e-116
0.6734 	-1.14271e-116
0.6741 	-9.88642e-117
0.6748 	-2.10992e-116
0.6755 	-7.71079e-117
0.6762 	-2.08448e-117
0.6769 	-1.5283e-117
0.6776 	-1.36214e-117
0.6783 	-1.19597e-117
0.679 	-1.0298e-117
0.6797 	-1.6026e-117
0.6804 	-1.02641e-117
0.6811 	-2.9345e-118
0.6818 	-1.58931e-118
0.6825 	-1.41294e-118
0.6832 	-1.23658e-118
0.6839 	-1.06022e-118
0.6846 	-1.08344e-118
0.6853 	-1.53612e-118
0.686 	-3.73465e-119
0.6867 	-1.63171e-119
0.6874 	-1.44747e-119
0.6881 	-1.26322e-119
0.6888 	-1.07898e-119
0.6895 	-8.94737e-120
0.6902 	-2.00387e-119
0.6909 	-4.45293e-120
0.6916 	-1.65399e-120
0.6923 	-1.4645e-120
0.693 	-1.27502e-120
0.6937 	-1.08554e-120
0.6944 	-8.96053e-121
0.6951 	-2.41296e-120
0.6958 	-5.29609e-121
0.6965 	-2.18413e-121
0.6972 	-2.00968e-121
0.6979 	-1.83522e-121
0.6986 	-1.66076e-121
0.6993 	-1.48631e-121
0.7 	-5.02956e-121
