0 	1
0.0007 	1
0.0014 	1
0.0021 	1
0.0028 	1
0.0035 	1
0.0042 	1
0.0049 	1
0.0056 	1
0.0063 	1
0.007 	1
0.0077 	1
0.0084 	1
0.0091 	1
0.0098 	1
0.0105 	1
0.0112 	1
0.0119 	1
0.0126 	1
0.0133 	1
0.014 	1
0.0147 	1
0.0154 	1
0.0161 	1
0.0168 	1
0.0175 	1
0.0182 	1
0.0189 	1
0.0196 	1
0.0203 	1
0.021 	1
0.0217 	1
0.0224 	1
0.0231 	1
0.0238 	1
0.0245 	1
0.0252 	1
0.0259 	1
0.0266 	1
0.0273 	1
0.028 	1
0.0287 	1
0.0294 	1
0.0301 	1
0.0308 	1
0.0315 	1
0.0322 	1
0.0329 	1
0.0336 	1
0.0343 	1
0.035 	1
0.0357 	1
0.0364 	1
0.0371 	1
0.0378 	1
0.0385 	1
0.0392 	1
0.0399 	1
0.0406 	1
0.0413 	1
0.042 	1
0.0427 	1
0.0434 	1
0.0441 	1
0.0448 	1
0.0455 	1
0.0462 	1
0.0469 	1
0.0476 	1
0.0483 	1
0.049 	1
0.0497 	1
0.0504 	1
0.0511 	1
0.0518 	1
0.0525 	1
0.0532 	1
0.0539 	1
0.0546 	1
0.0553 	1
0.056 	1
0.0567 	1
0.0574 	1
0.0581 	1
0.0588 	1
0.0595 	1
0.0602 	1
0.0609 	1
0.0616 	1
0.0623 	1
0.063 	1
0.0637 	1
0.0644 	1
0.0651 	1
0.0658 	1
0.0665 	1
0.0672 	1
0.0679 	1
0.0686 	1
0.0693 	1
0.07 	1
0.0707 	1
0.0714 	1
0.0721 	1
0.0728 	1
0.0735 	1
0.0742 	1
0.0749 	1
0.0756 	1
0.0763 	1
0.077 	1
0.0777 	1
0.0784 	1
0.0791 	1
0.0798 	1
0.0805 	1
0.0812 	1
0.0819 	1
0.0826 	1
0.0833 	1
0.084 	1
0.0847 	1
0.0854 	1
0.0861 	1
0.0868 	1
0.0875 	1
0.0882 	1
0.0889 	1
0.0896 	1
0.0903 	1
0.091 	1
0.0917 	1
0.0924 	1
0.0931 	1
0.0938 	1
0.0945 	1
0.0952 	1
0.0959 	1
0.0966 	1
0.0973 	1
0.098 	1
0.0987 	1
0.0994 	1
0.1001 	1
0.1008 	1
0.1015 	1
0.1022 	1
0.1029 	1
0.1036 	1
0.1043 	1
0.105 	1
0.1057 	1
0.1064 	1
0.1071 	1
0.1078 	1
0.1085 	1
0.1092 	1
0.1099 	1
0.1106 	1
0.1113 	1
0.112 	1
0.1127 	1
0.1134 	1
0.1141 	1
0.1148 	1
0.1155 	1
0.1162 	1
0.1169 	1
0.1176 	1
0.1183 	1
0.119 	1
0.1197 	1
0.1204 	1
0.1211 	1
0.1218 	1
0.1225 	1
0.1232 	1
0.1239 	1
0.1246 	1
0.1253 	1
0.126 	1
0.1267 	1
0.1274 	1
0.1281 	1
0.1288 	1
0.1295 	1
0.1302 	1
0.1309 	1
0.1316 	1
0.1323 	1
0.133 	1
0.1337 	1
0.1344 	1
0.1351 	1
0.1358 	1
0.1365 	1
0.1372 	1
0.1379 	1
0.1386 	1
0.1393 	1
0.14 	1
0.1407 	1
0.1414 	1
0.1421 	1
0.1428 	1
0.1435 	1
0.1442 	1
0.1449 	1
0.1456 	1
0.1463 	1
0.147 	1
0.1477 	1
0.1484 	1
0.1491 	1
0.1498 	1
0.1505 	1
0.1512 	1
0.1519 	1
0.1526 	1
0.1533 	1
0.154 	1
0.1547 	1
0.1554 	1
0.1561 	1
0.1568 	1
0.1575 	1
0.1582 	1
0.1589 	1
0.1596 	1
0.1603 	1
0.161 	1
0.1617 	1
0.1624 	1
0.1631 	1
0.1638 	1
0.1645 	1
0.1652 	1
0.1659 	1
0.1666 	1
0.1673 	1
0.168 	1
0.1687 	1
0.1694 	1
0.1701 	1
0.1708 	1
0.1715 	1
0.1722 	1
0.1729 	1
0.1736 	1
0.1743 	1
0.175 	1
0.1757 	1
0.1764 	1
0.1771 	1
0.1778 	1
0.1785 	1
0.1792 	1
0.1799 	1
0.1806 	1
0.1813 	1
0.182 	1
0.1827 	1
0.1834 	1
0.1841 	1
0.1848 	1
0.1855 	1
0.1862 	1
0.1869 	1
0.1876 	1
0.1883 	1
0.189 	1
0.1897 	1
0.1904 	1
0.1911 	1
0.1918 	1
0.1925 	1
0.1932 	1
0.1939 	1
0.1946 	1
0.1953 	1
0.196 	1
0.1967 	1
0.1974 	1
0.1981 	1
0.1988 	1
0.1995 	1
0.2002 	1
0.2009 	1
0.2016 	1
0.2023 	1
0.203 	1
0.2037 	1
0.2044 	1
0.2051 	1
0.2058 	1
0.2065 	1
0.2072 	1
0.2079 	1
0.2086 	1
0.2093 	1
0.21 	1
0.2107 	1
0.2114 	1
0.2121 	1
0.2128 	1
0.2135 	1
0.2142 	1
0.2149 	1
0.2156 	1
0.2163 	1
0.217 	1
0.2177 	1
0.2184 	1
0.2191 	1
0.2198 	1
0.2205 	1
0.2212 	1
0.2219 	1
0.2226 	1
0.2233 	1
0.224 	1
0.2247 	0.999999
0.2254 	0.999999
0.2261 	1
0.2268 	0.999999
0.2275 	0.999968
0.2282 	0.999907
0.2289 	0.999845
0.2296 	0.999783
0.2303 	0.999771
0.231 	0.999825
0.2317 	0.999727
0.2324 	0.998665
0.2331 	0.996025
0.2338 	0.993368
0.2345 	0.990489
0.2352 	0.988847
0.2359 	0.9903
0.2366 	0.988528
0.2373 	0.979702
0.238 	0.956876
0.2387 	0.934051
0.2394 	0.905218
0.2401 	0.879268
0.2408 	0.873394
0.2415 	0.858843
0.2422 	0.826983
0.2429 	0.773291
0.2436 	0.719599
0.2443 	0.646774
0.245 	0.568731
0.2457 	0.498019
0.2464 	0.430514
0.2471 	0.374774
0.2478 	0.328134
0.2485 	0.282191
0.2492 	0.245868
0.2499 	0.214888
0.2506 	0.163142
0.2513 	0.109099
0.252 	0.0702042
0.2527 	0.0511972
0.2534 	0.0376093
0.2541 	0.0322044
0.2548 	0.0349825
0.2555 	0.028167
0.2562 	0.0175142
0.2569 	0.00820576
0.2576 	0.00416977
0.2583 	0.00300515
0.259 	0.00236801
0.2597 	0.00268033
0.2604 	0.00232919
0.2611 	0.00148047
0.2618 	0.000712146
0.2625 	0.000299392
0.2632 	0.000220411
0.2639 	0.000163967
0.2646 	0.000190155
0.2653 	0.000178341
0.266 	0.000115858
0.2667 	5.79282e-05
0.2674 	2.04236e-05
0.2681 	1.5163e-05
0.2688 	1.04235e-05
0.2695 	1.24581e-05
0.2702 	1.26864e-05
0.2709 	8.39919e-06
0.2716 	4.32798e-06
0.2723 	1.22933e-06
0.273 	9.10259e-07
0.2737 	5.91188e-07
0.2744 	6.87506e-07
0.2751 	7.62098e-07
0.2758 	5.14613e-07
0.2765 	2.76083e-07
0.2772 	6.82704e-08
0.2779 	5.15759e-08
0.2786 	3.48814e-08
0.2793 	3.85724e-08
0.28 	4.78229e-08
0.2807 	3.28221e-08
0.2814 	1.80897e-08
0.2821 	4.34115e-09
0.2828 	2.61004e-09
0.2835 	1.81158e-09
0.2842 	1.85422e-09
0.2849 	2.36414e-09
0.2856 	1.77954e-09
0.2863 	1.0158e-09
0.287 	2.94756e-10
0.2877 	1.11596e-10
0.2884 	7.57569e-11
0.2891 	6.42474e-11
0.2898 	7.70673e-11
0.2905 	6.40322e-11
0.2912 	4.06551e-11
0.2919 	1.85823e-11
0.2926 	9.66214e-12
0.2933 	8.01983e-12
0.294 	6.90241e-12
0.2947 	6.72981e-12
0.2954 	6.44672e-12
0.2961 	6.08077e-12
0.2968 	5.67536e-12
0.2975 	5.31921e-12
0.2982 	5.0233e-12
0.2989 	4.71674e-12
0.2996 	4.37115e-12
0.3003 	4.01415e-12
0.301 	3.64193e-12
0.3017 	3.29088e-12
0.3024 	2.98139e-12
0.3031 	2.72577e-12
0.3038 	2.4725e-12
0.3045 	2.24964e-12
0.3052 	1.99459e-12
0.3059 	1.65905e-12
0.3066 	1.36365e-12
0.3073 	1.13494e-12
0.308 	1.00423e-12
0.3087 	8.73514e-13
0.3094 	8.17009e-13
0.3101 	7.55342e-13
0.3108 	6.2846e-13
0.3115 	5.11623e-13
0.3122 	4.1683e-13
0.3129 	3.74605e-13
0.3136 	3.32381e-13
0.3143 	3.12085e-13
0.315 	2.97769e-13
0.3157 	2.43265e-13
0.3164 	1.91504e-13
0.3171 	1.49801e-13
0.3178 	1.32634e-13
0.3185 	1.17395e-13
0.3192 	1.10307e-13
0.3199 	1.07747e-13
0.3206 	8.81561e-14
0.3213 	6.61175e-14
0.322 	4.91556e-14
0.3227 	4.15462e-14
0.3234 	3.65121e-14
0.3241 	3.41805e-14
0.3248 	3.45515e-14
0.3255 	2.88096e-14
0.3262 	2.06224e-14
0.3269 	1.42169e-14
0.3276 	1.10477e-14
0.3283 	9.61349e-15
0.329 	8.85559e-15
0.3297 	9.31511e-15
0.3304 	8.07668e-15
0.3311 	5.56482e-15
0.3318 	3.46984e-15
0.3325 	2.30541e-15
0.3332 	1.96398e-15
0.3339 	1.73455e-15
0.3346 	1.91574e-15
0.3353 	1.77052e-15
0.336 	1.19008e-15
0.3367 	6.75724e-16
0.3374 	3.46125e-16
0.3381 	2.85357e-16
0.3388 	2.31798e-16
0.3395 	2.7196e-16
0.3402 	2.74499e-16
0.3409 	1.82984e-16
0.3416 	9.77492e-17
0.3423 	3.40036e-17
0.343 	2.6738e-17
0.3437 	1.94725e-17
0.3444 	2.36001e-17
0.3451 	2.66335e-17
0.3458 	1.78436e-17
0.3465 	9.35309e-18
0.3472 	1.91639e-18
0.3479 	1.4095e-18
0.3486 	9.02606e-19
0.3493 	1.03301e-18
0.35 	1.33723e-18
0.3507 	9.08364e-19
0.3514 	4.84537e-19
0.3521 	7.91807e-20
0.3528 	3.41901e-20
0.3535 	1.79263e-20
0.3542 	1.59701e-20
0.3549 	2.19625e-20
0.3556 	1.66076e-20
0.3563 	9.37637e-21
0.357 	2.33883e-21
0.3577 	6.49208e-22
0.3584 	4.40117e-22
0.3591 	3.26259e-22
0.3598 	3.07633e-22
0.3605 	2.64853e-22
0.3612 	2.12411e-22
0.3619 	1.6812e-22
0.3626 	1.38721e-22
0.3633 	1.17341e-22
0.364 	9.91366e-23
0.3647 	8.66471e-23
0.3654 	7.44218e-23
0.3661 	6.23948e-23
0.3668 	5.225e-23
0.3675 	4.42108e-23
0.3682 	3.77818e-23
0.3689 	3.18796e-23
0.3696 	2.79095e-23
0.3703 	2.35638e-23
0.371 	1.87171e-23
0.3717 	1.45154e-23
0.3724 	1.13557e-23
0.3731 	9.44207e-24
0.3738 	7.60186e-24
0.3745 	6.71545e-24
0.3752 	5.68888e-24
0.3759 	4.31193e-24
0.3766 	3.08089e-24
0.3773 	2.13432e-24
0.378 	1.70519e-24
0.3787 	1.27605e-24
0.3794 	1.12391e-24
0.3801 	9.74845e-25
0.3808 	7.16364e-25
0.3815 	4.77256e-25
0.3822 	2.82379e-25
0.3829 	2.15309e-25
0.3836 	1.48238e-25
0.3843 	1.24735e-25
0.385 	1.13113e-25
0.3857 	8.15274e-26
0.3864 	5.12828e-26
0.3871 	2.59548e-26
0.3878 	1.77111e-26
0.3885 	1.08476e-26
0.3892 	8.10212e-27
0.3899 	7.64448e-27
0.3906 	5.64916e-27
0.3913 	3.42559e-27
0.392 	1.56645e-27
0.3927 	8.46371e-28
0.3934 	4.43327e-28
0.3941 	2.41953e-28
0.3948 	2.42247e-28
0.3955 	1.89107e-28
0.3962 	1.14593e-28
0.3969 	4.9821e-29
0.3976 	1.99173e-29
0.3983 	9.26511e-30
0.399 	2.4934e-30
0.3997 	2.70656e-30
0.4004 	2.29735e-30
0.4011 	1.42136e-30
0.4018 	6.17543e-31
0.4025 	1.75295e-31
0.4032 	8.00342e-32
0.4039 	5.36142e-33
0.4046 	6.17653e-33
0.4053 	5.74504e-33
0.406 	3.65144e-33
0.4067 	1.68188e-33
0.4074 	3.8293e-34
0.4081 	1.85294e-34
0.4088 	1.80069e-36
0.4095 	2.14769e-36
0.4102 	2.18098e-36
0.4109 	1.42999e-36
0.4116 	7.17856e-37
0.4123 	1.69717e-37
0.413 	9.13507e-38
0.4137 	1.29846e-38
0.4144 	9.52606e-39
0.4151 	1.11488e-38
0.4158 	8.68711e-39
0.4165 	7.08593e-39
0.4172 	6.96396e-39
0.4179 	5.87785e-39
0.4186 	4.79173e-39
0.4193 	5.59946e-39
0.42 	6.92369e-39
0.4207 	5.44533e-39
0.4214 	4.27466e-39
0.4221 	4.23215e-39
0.4228 	3.34032e-39
0.4235 	2.379e-39
0.4242 	2.34136e-39
0.4249 	2.81688e-39
0.4256 	2.35057e-39
0.4263 	1.76968e-39
0.427 	1.73996e-39
0.4277 	1.37741e-39
0.4284 	9.21744e-40
0.4291 	7.63213e-40
0.4298 	9.01812e-40
0.4305 	7.96199e-40
0.4312 	5.92901e-40
0.4319 	5.66437e-40
0.4326 	4.5988e-40
0.4333 	3.00256e-40
0.434 	2.08756e-40
0.4347 	2.39877e-40
0.4354 	2.21462e-40
0.4361 	1.65895e-40
0.4368 	1.50429e-40
0.4375 	1.25171e-40
0.4382 	7.88025e-41
0.4389 	4.33943e-41
0.4396 	4.8174e-41
0.4403 	4.6016e-41
0.441 	3.46075e-41
0.4417 	2.97867e-41
0.4424 	2.55674e-41
0.4431 	1.57292e-41
0.4438 	6.62512e-42
0.4445 	7.06356e-42
0.4452 	6.89274e-42
0.4459 	5.19876e-42
0.4466 	4.2465e-42
0.4473 	3.77076e-42
0.448 	2.29424e-42
0.4487 	8.17722e-43
0.4494 	7.23803e-43
0.4501 	7.09654e-43
0.4508 	5.36027e-43
0.4515 	4.15112e-43
0.4522 	3.80833e-43
0.4529 	2.30806e-43
0.4536 	8.0778e-44
0.4543 	4.7286e-44
0.455 	4.5576e-44
0.4557 	3.44512e-44
0.4564 	2.52796e-44
0.4571 	2.32697e-44
0.4578 	1.44865e-44
0.4585 	5.14245e-45
0.4592 	1.69752e-45
0.4599 	1.52983e-45
0.4606 	1.18049e-45
0.4613 	8.21997e-46
0.462 	7.38159e-46
0.4627 	4.8324e-46
0.4634 	1.80226e-46
0.4641 	2.65938e-47
0.4648 	2.23434e-47
0.4655 	1.7223e-47
0.4662 	1.17546e-47
0.4669 	9.99657e-48
0.4676 	6.8567e-48
0.4683 	2.76915e-48
0.469 	1.3217e-49
0.4697 	1.06203e-49
0.4704 	8.08278e-50
0.4711 	5.58955e-50
0.4718 	4.45522e-50
0.4725 	3.18988e-50
0.4732 	1.41201e-50
0.4739 	1.43197e-52
0.4746 	1.06296e-52
0.4753 	7.54294e-53
0.476 	5.26096e-53
0.4767 	3.84779e-53
0.4774 	2.74436e-53
0.4781 	1.3221e-53
0.4788 	1.41032e-56
0.4795 	1.04971e-56
0.4802 	7.31313e-57
0.4809 	5.18439e-57
0.4816 	3.65772e-57
0.4823 	2.65839e-57
0.483 	1.37578e-57
0.4837 	9.31726e-59
0.4844 	1.65793e-60
0.4851 	1.68486e-60
0.4858 	1.24245e-60
0.4865 	9.35317e-61
0.4872 	8.53181e-61
0.4879 	5.07902e-61
0.4886 	1.62622e-61
0.4893 	1.19141e-61
0.49 	1.57967e-61
0.4907 	1.19112e-61
0.4914 	8.85812e-62
0.4921 	8.85752e-62
0.4928 	5.49681e-62
0.4935 	1.85487e-62
0.4942 	7.10438e-63
0.4949 	9.53498e-63
0.4956 	7.79872e-63
0.4963 	5.54161e-63
0.497 	5.54157e-63
0.4977 	3.70028e-63
0.4984 	1.33909e-63
0.4991 	1.93247e-64
0.4998 	2.6275e-64
0.5005 	2.3296e-64
0.5012 	1.63454e-64
0.5019 	1.58488e-64
0.5026 	1.14611e-64
0.5033 	4.57146e-65
0.504 	1.64218e-66
0.5047 	2.25175e-66
0.5054 	2.16449e-66
0.5061 	1.55459e-66
0.5068 	1.42363e-66
0.5075 	1.13643e-66
0.5082 	5.55302e-67
0.5089 	1.04753e-67
0.5096 	1.32984e-67
0.5103 	1.3601e-67
0.511 	1.05431e-67
0.5117 	9.40452e-68
0.5124 	8.98226e-68
0.5131 	7.91293e-68
0.5138 	7.05355e-68
0.5145 	8.92339e-68
0.5152 	9.63171e-68
0.5159 	7.43622e-68
0.5166 	6.30259e-68
0.5173 	6.01565e-68
0.518 	4.9094e-68
0.5187 	3.80315e-68
0.5194 	4.62215e-68
0.5201 	5.28006e-68
0.5208 	4.08289e-68
0.5215 	3.29676e-68
0.5222 	3.20572e-68
0.5229 	2.47052e-68
0.5236 	1.73532e-68
0.5243 	1.8774e-68
0.525 	2.25873e-68
0.5257 	1.74996e-68
0.5264 	1.34524e-68
0.5271 	1.32201e-68
0.5278 	1.00533e-68
0.5285 	6.63851e-69
0.5292 	6.22914e-69
0.5299 	7.48943e-69
0.5306 	6.14115e-69
0.5313 	4.47926e-69
0.532 	4.39233e-69
0.5327 	3.35275e-69
0.5334 	2.04314e-69
0.5341 	1.54632e-69
0.5348 	1.86227e-69
0.5355 	1.61929e-69
0.5362 	1.15275e-69
0.5369 	1.09784e-69
0.5376 	8.58833e-70
0.5383 	4.96455e-70
0.539 	2.85332e-70
0.5397 	3.46469e-70
0.5404 	3.20648e-70
0.5411 	2.29609e-70
0.5418 	2.067e-70
0.5425 	1.68165e-70
0.5432 	9.449e-71
0.5439 	3.85599e-71
0.5446 	4.76932e-71
0.5453 	4.73552e-71
0.546 	3.43888e-71
0.5467 	2.94209e-71
0.5474 	2.52618e-71
0.5481 	1.4362e-71
0.5488 	4.29985e-72
0.5495 	5.12642e-72
0.5502 	5.40509e-72
0.5509 	4.31402e-72
0.5516 	3.74603e-72
0.5523 	3.42985e-72
0.553 	2.077e-72
0.5537 	7.24157e-73
0.5544 	-1.20511e-73
0.5551 	-7.05429e-73
0.5558 	3.3621e-74
0.5565 	5.01922e-73
0.5572 	4.67501e-73
0.5579 	2.09972e-73
0.5586 	-4.75565e-74
0.5593 	-1.37642e-72
0.56 	-2.99746e-72
0.5607 	-1.43253e-72
0.5614 	-2.07343e-73
0.5621 	-2.27909e-73
0.5628 	-3.3353e-73
0.5635 	-4.46393e-73
0.5642 	-2.08475e-72
0.5649 	-4.5706e-72
0.5656 	-2.85416e-72
0.5663 	-6.118e-73
0.567 	-6.37585e-73
0.5677 	-7.20885e-73
0.5684 	-8.2054e-73
0.5691 	-2.63798e-72
0.5698 	-6.1732e-72
0.5705 	-4.7198e-72
0.5712 	-1.27095e-72
0.5719 	-1.05378e-72
0.5726 	-1.13119e-72
0.5733 	-1.23495e-72
0.574 	-3.0075e-72
0.5747 	-7.78383e-72
0.5754 	-7.16005e-72
0.5761 	-2.48617e-72
0.5768 	-1.51312e-72
0.5775 	-1.58655e-72
0.5782 	-1.69822e-72
0.5789 	-3.10939e-72
0.5796 	-9.2853e-72
0.5803 	-1.02167e-71
0.581 	-4.15549e-72
0.5817 	-2.01608e-72
0.5824 	-2.08236e-72
0.5831 	-2.19861e-72
0.5838 	-2.85376e-72
0.5845 	-1.05144e-71
0.5852 	-1.38319e-71
0.5859 	-6.29153e-72
0.5866 	-2.54128e-72
0.5873 	-2.59656e-72
0.588 	-2.71075e-72
0.5887 	-2.82494e-72
0.5894 	-1.13068e-71
0.5901 	-1.78417e-71
0.5908 	-8.83316e-72
0.5915 	-3.05527e-72
0.5922 	-3.09677e-72
0.5929 	-3.20058e-72
0.5936 	-3.3044e-72
0.5943 	-1.15346e-71
0.595 	-2.1981e-71
0.5957 	-1.16381e-71
0.5964 	-3.51826e-72
0.5971 	-3.54945e-72
0.5978 	-3.63005e-72
0.5985 	-3.71488e-72
0.5992 	-1.11376e-71
0.5999 	-2.26368e-71
0.6006 	-1.44919e-71
0.6013 	-3.89015e-72
0.602 	-3.91225e-72
0.6027 	-3.96243e-72
0.6034 	-4.02063e-72
0.6041 	-1.01397e-71
0.6048 	-2.23195e-71
0.6055 	-1.71346e-71
0.6062 	-5.00382e-72
0.6069 	-4.14737e-72
0.6076 	-4.16798e-72
0.6083 	-4.19421e-72
0.609 	-8.64756e-72
0.6097 	-2.10697e-71
0.6104 	-1.93026e-71
0.6111 	-6.89354e-72
0.6118 	-4.23334e-72
0.6125 	-4.22882e-72
0.6132 	-4.2211e-72
0.6139 	-6.83121e-72
0.6146 	-1.90399e-71
0.6153 	-2.07739e-71
0.616 	-8.54165e-72
0.6167 	-4.16445e-72
0.6174 	-4.14187e-72
0.6181 	-4.10188e-72
0.6188 	-4.89139e-72
0.6195 	-1.6464e-71
0.6202 	-2.14074e-71
0.6209 	-9.77798e-72
0.6216 	-3.95155e-72
0.6223 	-3.91908e-72
0.623 	-3.85182e-72
0.6237 	-3.78455e-72
0.6244 	-1.36125e-71
0.6251 	-2.11643e-71
0.6258 	-1.04917e-71
0.6265 	-3.61967e-72
0.6272 	-3.5851e-72
0.6279 	-3.49789e-72
0.6286 	-3.41068e-72
0.6293 	-1.07476e-71
0.63 	-2.01092e-71
0.6307 	-1.06462e-71
0.6314 	-3.20345e-72
0.6321 	-3.1679e-72
0.6328 	-3.07419e-72
0.6335 	-2.97546e-72
0.6342 	-8.08551e-72
0.6349 	-1.60893e-71
0.6356 	-1.02781e-71
0.6363 	-2.74132e-72
0.637 	-2.70425e-72
0.6377 	-2.61668e-72
0.6384 	-2.5147e-72
0.6391 	-5.77544e-72
0.6398 	-1.23989e-71
0.6405 	-9.48176e-72
0.6412 	-2.74845e-72
0.6419 	-2.23408e-72
0.6426 	-2.1586e-72
0.6433 	-2.06042e-72
0.644 	-3.8937e-72
0.6447 	-9.2036e-72
0.6454 	-8.38619e-72
0.6461 	-2.9733e-72
0.6468 	-1.78754e-72
0.6475 	-1.72695e-72
0.6482 	-1.63779e-72
0.6489 	-2.45215e-72
0.6496 	-6.57941e-72
0.6503 	-7.12986e-72
0.651 	-2.91123e-72
0.6517 	-1.3862e-72
0.6524 	-1.34072e-72
0.6531 	-1.26376e-72
0.6538 	-1.41464e-72
0.6545 	-4.52736e-72
0.6552 	-5.83932e-72
0.6559 	-2.64937e-72
0.6566 	-1.04253e-72
0.6573 	-1.0106e-72
0.658 	-9.47131e-73
0.6587 	-8.83658e-73
0.6594 	-2.99569e-72
0.6601 	-4.61488e-72
0.6608 	-2.27303e-72
0.6615 	-7.60807e-73
0.6622 	-7.39933e-73
0.6629 	-6.89703e-73
0.6636 	-6.39473e-73
0.6643 	-1.90263e-72
0.665 	-3.52398e-72
0.6657 	-1.85405e-72
0.6664 	-5.38852e-73
0.6671 	-5.24371e-73
0.6678 	-4.87952e-73
0.6685 	-4.49641e-73
0.6692 	-1.15589e-72
0.6699 	-2.27579e-72
0.6706 	-1.4446e-72
0.6713 	-3.70055e-73
0.672 	-3.59295e-73
0.6727 	-3.34861e-73
0.6734 	-3.06519e-73
0.6741 	-6.66799e-73
0.6748 	-1.4157e-72
0.6755 	-1.0757e-72
0.6762 	-3.00142e-73
0.6769 	-2.37476e-73
0.6776 	-2.21576e-73
0.6783 	-2.01034e-73
0.679 	-3.59108e-73
0.6797 	-8.38688e-73
0.6804 	-7.59184e-73
0.6811 	-2.60368e-73
0.6818 	-1.49038e-73
0.6825 	-1.38928e-73
0.6832 	-1.24215e-73
0.6839 	-1.73764e-73
0.6846 	-4.58939e-73
0.6853 	-4.93741e-73
0.686 	-1.94711e-73
0.6867 	-8.53219e-74
0.6874 	-7.912e-74
0.6881 	-6.8873e-74
0.6888 	-6.98271e-74
0.6895 	-2.16394e-73
0.6902 	-2.76455e-73
0.6909 	-1.20254e-73
0.6916 	-4.08275e-74
0.6923 	-3.74021e-74
0.693 	-3.09978e-74
0.6937 	-2.45934e-74
0.6944 	-7.61563e-74
0.6951 	-1.1537e-73
0.6958 	-5.37353e-74
0.6965 	-1.36554e-74
0.6972 	-1.22728e-74
0.6979 	-9.38618e-75
0.6986 	-6.49961e-75
0.6993 	-5.03414e-75
0.7 	-3.95625e-75
