0 	1
0.0007 	1
0.0014 	1
0.0021 	1
0.0028 	1
0.0035 	1
0.0042 	1
0.0049 	1
0.0056 	1
0.0063 	1
0.007 	1
0.0077 	1
0.0084 	1
0.0091 	1
0.0098 	1
0.0105 	1
0.0112 	1
0.0119 	1
0.0126 	1
0.0133 	1
0.014 	1
0.0147 	1
0.0154 	1
0.0161 	1
0.0168 	1
0.0175 	1
0.0182 	1
0.0189 	1
0.0196 	1
0.0203 	1
0.021 	1
0.0217 	1
0.0224 	1
0.0231 	1
0.0238 	1
0.0245 	1
0.0252 	1
0.0259 	1
0.0266 	1
0.0273 	1
0.028 	1
0.0287 	1
0.0294 	1
0.0301 	1
0.0308 	1
0.0315 	1
0.0322 	1
0.0329 	1
0.0336 	1
0.0343 	1
0.035 	1
0.0357 	1
0.0364 	1
0.0371 	1
0.0378 	1
0.0385 	1
0.0392 	1
0.0399 	1
0.0406 	1
0.0413 	1
0.042 	1
0.0427 	1
0.0434 	1
0.0441 	1
0.0448 	1
0.0455 	1
0.0462 	1
0.0469 	1
0.0476 	1
0.0483 	1
0.049 	1
0.0497 	1
0.0504 	1
0.0511 	1
0.0518 	1
0.0525 	1
0.0532 	1
0.0539 	1
0.0546 	1
0.0553 	1
0.056 	1
0.0567 	1
0.0574 	1
0.0581 	1
0.0588 	1
0.0595 	1
0.0602 	1
0.0609 	1
0.0616 	1
0.0623 	1
0.063 	1
0.0637 	1
0.0644 	1
0.0651 	1
0.0658 	1
0.0665 	1
0.0672 	1
0.0679 	1
0.0686 	1
0.0693 	1
0.07 	1
0.0707 	1
0.0714 	1
0.0721 	1
0.0728 	1
0.0735 	1
0.0742 	1
0.0749 	1
0.0756 	1
0.0763 	1
0.077 	1
0.0777 	1
0.0784 	1
0.0791 	1
0.0798 	1
0.0805 	1
0.0812 	1
0.0819 	1
0.0826 	1
0.0833 	1
0.084 	1
0.0847 	1
0.0854 	1
0.0861 	1
0.0868 	1
0.0875 	1
0.0882 	1
0.0889 	1
0.0896 	1
0.0903 	1
0.091 	1
0.0917 	1
0.0924 	1
0.0931 	1
0.0938 	1
0.0945 	1
0.0952 	1
0.0959 	1
0.0966 	1
0.0973 	1
0.098 	1
0.0987 	1
0.0994 	1
0.1001 	1
0.1008 	1
0.1015 	1
0.1022 	1
0.1029 	1
0.1036 	1
0.1043 	1
0.105 	1
0.1057 	1
0.1064 	1
0.1071 	1
0.1078 	1
0.1085 	1
0.1092 	1
0.1099 	1
0.1106 	1
0.1113 	1
0.112 	1
0.1127 	1
0.1134 	1
0.1141 	1
0.1148 	1
0.1155 	1
0.1162 	1
0.1169 	1
0.1176 	1
0.1183 	1
0.119 	1
0.1197 	1
0.1204 	1
0.1211 	1
0.1218 	1
0.1225 	1
0.1232 	1
0.1239 	1
0.1246 	1
0.1253 	1
0.126 	1
0.1267 	1
0.1274 	1
0.1281 	1
0.1288 	1
0.1295 	1
0.1302 	1
0.1309 	1
0.1316 	1
0.1323 	1
0.133 	1
0.1337 	1
0.1344 	1
0.1351 	1
0.1358 	1
0.1365 	1
0.1372 	1
0.1379 	1
0.1386 	1
0.1393 	1
0.14 	1
0.1407 	1
0.1414 	1
0.1421 	1
0.1428 	1
0.1435 	1
0.1442 	1
0.1449 	1
0.1456 	1
0.1463 	1
0.147 	1
0.1477 	1
0.1484 	1
0.1491 	1
0.1498 	1
0.1505 	1
0.1512 	1
0.1519 	1
0.1526 	1
0.1533 	1
0.154 	1
0.1547 	1
0.1554 	1
0.1561 	1
0.1568 	1
0.1575 	1
0.1582 	1
0.1589 	1
0.1596 	1
0.1603 	1
0.161 	1
0.1617 	1
0.1624 	1
0.1631 	1
0.1638 	1
0.1645 	1
0.1652 	1
0.1659 	1
0.1666 	1
0.1673 	1
0.168 	1
0.1687 	1
0.1694 	1
0.1701 	1
0.1708 	1
0.1715 	1
0.1722 	1
0.1729 	1
0.1736 	1
0.1743 	1
0.175 	1
0.1757 	1
0.1764 	1
0.1771 	1
0.1778 	1
0.1785 	1
0.1792 	1
0.1799 	1
0.1806 	1
0.1813 	1
0.182 	1
0.1827 	1
0.1834 	1
0.1841 	1
0.1848 	1
0.1855 	1
0.1862 	1
0.1869 	1
0.1876 	1
0.1883 	1
0.189 	1
0.1897 	1
0.1904 	1
0.1911 	1
0.1918 	1
0.1925 	1
0.1932 	1
0.1939 	1
0.1946 	1
0.1953 	1
0.196 	1
0.1967 	1
0.1974 	1
0.1981 	1
0.1988 	1
0.1995 	1
0.2002 	1
0.2009 	1
0.2016 	1
0.2023 	1
0.203 	1
0.2037 	1
0.2044 	1
0.2051 	1
0.2058 	1
0.2065 	1
0.2072 	1
0.2079 	1
0.2086 	1
0.2093 	1
0.21 	1
0.2107 	1
0.2114 	1
0.2121 	1
0.2128 	1
0.2135 	1
0.2142 	1
0.2149 	1
0.2156 	1
0.2163 	1
0.217 	1
0.2177 	1
0.2184 	1
0.2191 	1
0.2198 	1
0.2205 	1
0.2212 	1
0.2219 	1
0.2226 	1
0.2233 	1
0.224 	1
0.2247 	1
0.2254 	1
0.2261 	1
0.2268 	1
0.2275 	1
0.2282 	1
0.2289 	1
0.2296 	1
0.2303 	1
0.231 	1
0.2317 	1
0.2324 	1
0.2331 	1
0.2338 	1
0.2345 	1
0.2352 	1
0.2359 	1
0.2366 	1
0.2373 	1
0.238 	1
0.2387 	1
0.2394 	1
0.2401 	1
0.2408 	1
0.2415 	1
0.2422 	1
0.2429 	1
0.2436 	1
0.2443 	1
0.245 	1
0.2457 	1
0.2464 	1
0.2471 	1
0.2478 	1
0.2485 	1
0.2492 	1
0.2499 	1
0.2506 	1
0.2513 	1
0.252 	1
0.2527 	1
0.2534 	1
0.2541 	1
0.2548 	1
0.2555 	1
0.2562 	1
0.2569 	1
0.2576 	1
0.2583 	1
0.259 	1
0.2597 	1
0.2604 	1
0.2611 	1
0.2618 	1
0.2625 	1
0.2632 	1
0.2639 	1
0.2646 	1
0.2653 	1
0.266 	1
0.2667 	1
0.2674 	1
0.2681 	1
0.2688 	1
0.2695 	1
0.2702 	1
0.2709 	1
0.2716 	1
0.2723 	1
0.273 	0.999999
0.2737 	0.999999
0.2744 	0.999999
0.2751 	0.999998
0.2758 	0.999998
0.2765 	0.999995
0.2772 	0.999975
0.2779 	0.999948
0.2786 	0.999922
0.2793 	0.99989
0.28 	0.999857
0.2807 	0.999853
0.2814 	0.999792
0.2821 	0.998936
0.2828 	0.997522
0.2835 	0.996107
0.2842 	0.994524
0.2849 	0.992847
0.2856 	0.992534
0.2863 	0.992103
0.287 	0.982701
0.2877 	0.965643
0.2884 	0.948586
0.2891 	0.929107
0.2898 	0.907204
0.2905 	0.893993
0.2912 	0.884259
0.2919 	0.846216
0.2926 	0.790677
0.2933 	0.735138
0.294 	0.670451
0.2947 	0.589297
0.2954 	0.506853
0.2961 	0.42344
0.2968 	0.359281
0.2975 	0.307339
0.2982 	0.255397
0.2989 	0.208539
0.2996 	0.180319
0.3003 	0.144087
0.301 	0.0971718
0.3017 	0.0584947
0.3024 	0.0441107
0.3031 	0.0310995
0.3038 	0.019004
0.3045 	0.0188107
0.3052 	0.0168312
0.3059 	0.0103867
0.3066 	0.00448428
0.3073 	0.00259825
0.308 	0.00163426
0.3087 	0.000670278
0.3094 	0.000713942
0.3101 	0.000774426
0.3108 	0.000470807
0.3115 	0.000177722
0.3122 	6.36019e-05
0.3129 	3.72967e-05
0.3136 	1.09915e-05
0.3143 	7.93384e-06
0.315 	1.12162e-05
0.3157 	6.86365e-06
0.3164 	2.54724e-06
0.3171 	3.81159e-07
0.3178 	2.24757e-07
0.3185 	6.83551e-08
0.3192 	2.16452e-08
0.3199 	3.58734e-08
0.3206 	2.49969e-08
0.3213 	9.94375e-09
0.322 	2.80063e-10
0.3227 	1.73073e-10
0.3234 	6.60823e-11
0.3241 	1.70113e-11
0.3248 	2.58581e-11
0.3255 	2.2151e-11
0.3262 	1.34223e-11
0.3269 	6.53717e-12
0.3276 	6.58118e-12
0.3283 	6.62518e-12
0.329 	6.66549e-12
0.3297 	6.69917e-12
0.3304 	6.72835e-12
0.3311 	6.75418e-12
0.3318 	6.77159e-12
0.3325 	6.77391e-12
0.3332 	6.77624e-12
0.3339 	6.77653e-12
0.3346 	6.76942e-12
0.3353 	6.76877e-12
0.336 	6.77677e-12
0.3367 	6.78243e-12
0.3374 	6.76915e-12
0.3381 	6.75439e-12
0.3388 	6.73939e-12
0.3395 	6.72117e-12
0.3402 	6.70963e-12
0.3409 	6.71476e-12
0.3416 	6.71558e-12
0.3423 	6.69209e-12
0.343 	6.66288e-12
0.3437 	6.63368e-12
0.3444 	6.5967e-12
0.3451 	6.56497e-12
0.3458 	6.56828e-12
0.3465 	6.56529e-12
0.3472 	6.52615e-12
0.3479 	6.47263e-12
0.3486 	6.41912e-12
0.3493 	6.35198e-12
0.35 	6.28113e-12
0.3507 	6.27399e-12
0.3514 	6.2606e-12
0.3521 	6.19737e-12
0.3528 	6.10596e-12
0.3535 	6.01455e-12
0.3542 	5.90462e-12
0.3549 	5.78439e-12
0.3556 	5.73438e-12
0.3563 	5.69323e-12
0.357 	5.59349e-12
0.3577 	5.45254e-12
0.3584 	5.31159e-12
0.3591 	5.15089e-12
0.3598 	4.97044e-12
0.3605 	4.84624e-12
0.3612 	4.74453e-12
0.3619 	4.5979e-12
0.3626 	4.41268e-12
0.3633 	4.22746e-12
0.364 	4.02843e-12
0.3647 	3.80455e-12
0.3654 	3.59898e-12
0.3661 	3.40713e-12
0.3668 	3.20694e-12
0.3675 	3.01439e-12
0.3682 	2.82183e-12
0.3689 	2.6268e-12
0.3696 	2.42267e-12
0.3703 	2.19672e-12
0.371 	1.94165e-12
0.3717 	1.70866e-12
0.3724 	1.55688e-12
0.3731 	1.41185e-12
0.3738 	1.26925e-12
0.3745 	1.15808e-12
0.3752 	1.01734e-12
0.3759 	8.02694e-13
0.3766 	6.13188e-13
0.3773 	5.20465e-13
0.378 	4.49589e-13
0.3787 	3.78713e-13
0.3794 	3.54059e-13
0.3801 	3.2195e-13
0.3808 	2.23776e-13
0.3815 	1.34046e-13
0.3822 	9.38822e-14
0.3829 	7.46173e-14
0.3836 	5.53523e-14
0.3843 	5.44425e-14
0.385 	5.85385e-14
0.3857 	3.78603e-14
0.3864 	1.79074e-14
0.3871 	7.79266e-15
0.3878 	5.53645e-15
0.3885 	3.28024e-15
0.3892 	3.14897e-15
0.3899 	4.1982e-15
0.3906 	2.93475e-15
0.3913 	1.29415e-15
0.392 	2.45859e-16
0.3927 	1.68287e-16
0.3934 	9.07146e-17
0.3941 	6.69626e-17
0.3948 	9.70293e-17
0.3955 	7.9734e-17
0.3962 	4.34939e-17
0.3969 	1.46536e-17
0.3976 	1.31498e-17
0.3983 	1.1646e-17
0.399 	1.04726e-17
0.3997 	9.89383e-18
0.4004 	9.15721e-18
0.4011 	8.30221e-18
0.4018 	7.55185e-18
0.4025 	6.83609e-18
0.4032 	6.12032e-18
0.4039 	5.43268e-18
0.4046 	4.84816e-18
0.4053 	4.30939e-18
0.406 	3.83164e-18
0.4067 	3.42425e-18
0.4074 	3.00046e-18
0.4081 	2.5705e-18
0.4088 	2.14835e-18
0.4095 	1.82788e-18
0.4102 	1.52151e-18
0.4109 	1.25039e-18
0.4116 	1.01919e-18
0.4123 	8.43868e-19
0.413 	6.73716e-19
0.4137 	5.03565e-19
0.4144 	4.07755e-19
0.4151 	3.18283e-19
0.4158 	2.32524e-19
0.4165 	1.56846e-19
0.4172 	1.13754e-19
0.4179 	7.98589e-20
0.4186 	4.59634e-20
0.4193 	3.4348e-20
0.42 	2.88088e-20
0.4207 	1.95226e-20
0.4214 	1.07128e-20
0.4221 	5.91259e-21
0.4228 	3.69898e-21
0.4235 	1.48536e-21
0.4242 	7.13442e-22
0.4249 	7.4245e-22
0.4256 	5.16923e-22
0.4263 	2.51229e-22
0.427 	8.08996e-23
0.4277 	4.93797e-23
0.4284 	1.78598e-23
0.4291 	2.58464e-24
0.4298 	3.554e-24
0.4305 	2.79058e-24
0.4312 	1.33405e-24
0.4319 	1.67633e-25
0.4326 	1.05691e-25
0.4333 	4.37492e-26
0.434 	4.15853e-27
0.4347 	4.79944e-27
0.4354 	4.27746e-27
0.4361 	2.8833e-27
0.4368 	1.58005e-27
0.4375 	1.42971e-27
0.4382 	1.27937e-27
0.4389 	1.14628e-27
0.4396 	1.07645e-27
0.4403 	9.74528e-28
0.441 	8.2982e-28
0.4417 	7.02796e-28
0.4424 	6.46417e-28
0.4431 	5.97587e-28
0.4438 	5.50952e-28
0.4445 	5.32857e-28
0.4452 	4.995e-28
0.4459 	4.27991e-28
0.4466 	3.65109e-28
0.4473 	3.36427e-28
0.448 	3.16482e-28
0.4487 	2.96536e-28
0.4494 	2.9419e-28
0.4501 	2.87867e-28
0.4508 	2.49564e-28
0.4515 	2.14073e-28
0.4522 	1.95993e-28
0.4529 	1.86107e-28
0.4536 	1.7622e-28
0.4543 	1.7328e-28
0.455 	1.72235e-28
0.4557 	1.49612e-28
0.4564 	1.27569e-28
0.4571 	1.13613e-28
0.4578 	1.06745e-28
0.4585 	9.98766e-29
0.4592 	9.51267e-29
0.4599 	9.15536e-29
0.4606 	7.84151e-29
0.4613 	6.37815e-29
0.462 	5.30962e-29
0.4627 	4.82549e-29
0.4634 	4.34136e-29
0.4641 	3.94462e-29
0.4648 	3.63526e-29
0.4655 	2.97753e-29
0.4662 	2.18045e-29
0.4669 	1.57429e-29
0.4676 	1.34314e-29
0.4683 	1.11199e-29
0.469 	9.31442e-30
0.4697 	8.41973e-30
0.4704 	6.69671e-30
0.4711 	4.35243e-30
0.4718 	2.40651e-30
0.4725 	1.85166e-30
0.4732 	1.29681e-30
0.4739 	8.4969e-31
0.4746 	7.97546e-31
0.4753 	6.58387e-31
0.476 	4.03212e-31
0.4767 	1.77113e-31
0.4774 	1.10355e-31
0.4781 	6.30264e-32
0.4788 	1.91312e-32
0.4795 	1.98661e-32
0.4802 	1.83321e-32
0.4809 	1.11256e-32
0.4816 	4.38627e-33
0.4823 	2.03517e-33
0.483 	1.08717e-33
0.4837 	1.39168e-34
0.4844 	8.59136e-35
0.4851 	9.4034e-35
0.4858 	5.74704e-35
0.4865 	2.20556e-35
0.4872 	6.68469e-36
0.4879 	3.68087e-36
0.4886 	6.77052e-37
0.4893 	4.58053e-38
0.49 	6.16095e-38
0.4907 	3.82269e-38
0.4914 	1.51555e-38
0.4921 	2.57037e-39
0.4928 	1.48075e-39
0.4935 	3.91137e-40
0.4942 	2.7063e-42
0.4949 	3.81667e-42
0.4956 	2.67416e-42
0.4963 	1.16278e-42
0.497 	1.52834e-43
0.4977 	9.20862e-44
0.4984 	3.1338e-44
0.4991 	1.27194e-45
0.4998 	1.88747e-45
0.5005 	1.56336e-45
0.5012 	8.63391e-46
0.5019 	5.57261e-46
0.5026 	5.42219e-46
0.5033 	5.27178e-46
0.504 	6.59274e-46
0.5047 	1.05621e-45
0.5054 	9.82483e-46
0.5061 	5.5575e-46
0.5068 	2.70138e-46
0.5075 	2.64078e-46
0.5082 	2.58018e-46
0.5089 	2.96899e-46
0.5096 	5.00559e-46
0.5103 	5.2171e-46
0.511 	2.99517e-46
0.5117 	1.04396e-46
0.5124 	7.88093e-47
0.5131 	7.57721e-47
0.5138 	7.74443e-47
0.5145 	1.40336e-46
0.5152 	1.65668e-46
0.5159 	9.71026e-47
0.5166 	2.89942e-47
0.5173 	1.00796e-47
0.518 	9.30525e-48
0.5187 	8.53094e-48
0.5194 	1.60992e-47
0.5201 	2.18934e-47
0.5208 	1.3193e-47
0.5215 	4.28087e-48
0.5222 	3.86528e-49
0.5229 	3.23737e-49
0.5236 	2.60946e-49
0.5243 	4.5882e-49
0.525 	7.27784e-49
0.5257 	4.50498e-49
0.5264 	1.6929e-49
0.5271 	3.60783e-51
0.5278 	2.55196e-51
0.5285 	1.49608e-51
0.5292 	1.97079e-51
0.5299 	3.29581e-51
0.5306 	2.33079e-51
0.5313 	9.81377e-52
0.532 	7.47209e-54
0.5327 	4.69827e-54
0.5334 	1.92446e-54
0.5341 	8.77175e-55
0.5348 	1.55641e-54
0.5355 	1.25986e-54
0.5362 	5.73004e-55
0.5369 	2.66074e-57
0.5376 	1.66397e-57
0.5383 	6.67196e-58
0.539 	3.84076e-59
0.5397 	7.19811e-59
0.5404 	6.691e-59
0.5411 	3.28554e-59
0.5418 	1.8342e-61
0.5425 	1.18012e-61
0.5432 	5.26048e-62
0.5439 	1.53466e-63
0.5446 	3.0345e-63
0.5453 	3.23582e-63
0.546 	1.70578e-63
0.5467 	2.09552e-64
0.5474 	8.01154e-66
0.5481 	3.88762e-66
0.5488 	6.32879e-68
0.5495 	1.33529e-67
0.5502 	1.63104e-67
0.5509 	9.10116e-68
0.5516 	2.00854e-68
0.5523 	5.29724e-70
0.553 	2.75388e-70
0.5537 	2.10527e-71
0.5544 	6.03819e-72
0.5551 	8.44675e-72
0.5558 	4.94211e-72
0.5565 	1.47515e-72
0.5572 	3.40306e-74
0.5579 	1.87275e-74
0.5586 	3.42451e-75
0.5593 	2.21688e-76
0.56 	3.18868e-76
0.5607 	2.15389e-76
0.5614 	9.78776e-77
0.5621 	1.98982e-78
0.5628 	1.02155e-78
0.5635 	5.32769e-80
0.5642 	-1.1495e-76
0.5649 	-2.93305e-76
0.5656 	-1.66034e-76
0.5663 	-5.51705e-79
0.567 	-5.60122e-79
0.5677 	-6.81786e-79
0.5684 	-8.0345e-79
0.5691 	-1.33677e-76
0.5698 	-3.99301e-76
0.5705 	-2.85492e-76
0.5712 	-1.99097e-77
0.5719 	-7.20387e-79
0.5726 	-7.78138e-79
0.5733 	-8.35889e-79
0.574 	-1.17035e-76
0.5747 	-4.42285e-76
0.5754 	-3.9572e-76
0.5761 	-7.02945e-77
0.5768 	5.38982e-80
0.5775 	2.15112e-80
0.5782 	-1.08758e-80
0.5789 	-7.8316e-77
0.5796 	-4.43618e-76
0.5803 	-4.95797e-76
0.581 	-1.3048e-76
0.5817 	1.73421e-78
0.5824 	2.075e-78
0.5831 	2.03179e-78
0.5838 	-2.52723e-77
0.5845 	-4.06958e-76
0.5852 	-5.70537e-76
0.5859 	-1.88848e-76
0.5866 	8.50219e-78
0.5873 	1.21579e-77
0.588 	1.21232e-77
0.5887 	1.20884e-77
0.5894 	-3.40036e-76
0.5901 	-6.10897e-76
0.5908 	-2.31681e-76
0.5915 	2.81739e-77
0.5922 	4.73488e-77
0.5929 	4.73281e-77
0.5936 	4.73074e-77
0.5943 	-2.434e-76
0.595 	-6.13384e-76
0.5957 	-2.43377e-76
0.5964 	6.98052e-77
0.5971 	1.29531e-76
0.5978 	1.2953e-76
0.5985 	1.2953e-76
0.5992 	-9.80125e-77
0.5999 	-4.51966e-76
0.6006 	-1.99107e-76
0.6013 	1.33869e-76
0.602 	1.76484e-76
0.6027 	1.76498e-76
0.6034 	1.76513e-76
0.6041 	-1.32953e-77
0.6048 	-3.92926e-76
0.6055 	-2.30209e-76
0.6062 	1.49447e-76
0.6069 	1.09867e-76
0.6076 	1.09896e-76
0.6083 	1.09926e-76
0.609 	-5.84772e-77
0.6097 	-5.30059e-76
0.6104 	-4.62686e-76
0.6111 	8.9018e-78
0.6118 	5.02231e-77
0.6125 	5.0267e-77
0.6132 	5.03109e-77
0.6139 	-1.01945e-76
0.6146 	-8.1263e-76
0.6153 	-9.14147e-76
0.616 	-2.03437e-76
0.6167 	1.41846e-76
0.6174 	1.62284e-76
0.6181 	1.62346e-76
0.6188 	1.02632e-76
0.6195 	-7.34154e-76
0.6202 	-1.09273e-75
0.6209 	-2.55798e-76
0.6216 	6.83087e-76
0.6223 	9.81515e-76
0.623 	9.8171e-76
0.6237 	9.81905e-76
0.6244 	6.65926e-76
0.6251 	4.22974e-76
0.6258 	7.64108e-76
0.6265 	2.37765e-75
0.6272 	4.05627e-75
0.6279 	4.05707e-75
0.6286 	4.05788e-75
0.6293 	5.29776e-75
0.63 	6.87558e-75
0.6307 	5.30156e-75
0.6314 	5.66635e-75
0.6321 	9.95098e-75
0.6328 	9.95396e-75
0.6335 	9.95694e-75
0.6342 	1.33397e-74
0.6349 	1.86e-74
0.6356 	1.48561e-74
0.6363 	1.009e-74
0.637 	1.11343e-74
0.6377 	1.11406e-74
0.6384 	1.11469e-74
0.6391 	1.41222e-74
0.6398 	2.00664e-74
0.6405 	1.7541e-74
0.6412 	1.16277e-74
0.6419 	5.00023e-75
0.6426 	5.0016e-75
0.6433 	5.00297e-75
0.644 	5.7139e-75
0.6447 	7.70206e-75
0.6454 	7.40733e-75
0.6461 	5.40042e-75
0.6468 	6.27379e-76
0.6475 	6.05769e-76
0.6482 	5.99186e-76
0.6489 	4.40339e-76
0.6496 	-2.76805e-76
0.6503 	-3.9192e-76
0.651 	2.95671e-76
0.6517 	1.07977e-76
0.6524 	5.41009e-78
0.6531 	4.23281e-79
0.6538 	-7.24388e-77
0.6545 	-1.02767e-75
0.6552 	-1.43921e-75
0.6559 	-4.91547e-76
0.6566 	-2.30457e-77
0.6573 	-2.70337e-77
0.658 	-2.83087e-77
0.6587 	-2.95837e-77
0.6594 	-8.2645e-76
0.6601 	-1.43963e-75
0.6608 	-5.83518e-76
0.6615 	-3.39312e-77
0.6622 	-3.49863e-77
0.6629 	-3.52008e-77
0.6636 	-3.54153e-77
0.6643 	-6.22132e-76
0.665 	-1.3688e-75
0.6657 	-6.22196e-76
0.6664 	-3.56188e-77
0.6671 	-3.56515e-77
0.6678 	-3.54622e-77
0.6685 	-3.52729e-77
0.6692 	-4.39817e-76
0.6699 	-1.06921e-75
0.6706 	-6.18984e-76
0.6713 	-3.37885e-77
0.672 	-3.32539e-77
0.6727 	-3.28757e-77
0.6734 	-3.24975e-77
0.6741 	-2.89251e-76
0.6748 	-8.03136e-76
0.6755 	-5.82056e-76
0.6762 	-6.69894e-77
0.6769 	-2.93717e-77
0.6776 	-2.89073e-77
0.6783 	-2.84429e-77
0.679 	-1.73372e-76
0.6797 	-5.80011e-76
0.6804 	-5.21145e-76
0.6811 	-1.13151e-76
0.6818 	-2.48465e-77
0.6825 	-2.43586e-77
0.6832 	-2.38732e-77
0.6839 	-9.03962e-77
0.6846 	-4.02616e-76
0.6853 	-4.46634e-76
0.686 	-1.33049e-76
0.6867 	-2.03315e-77
0.6874 	-1.97732e-77
0.6881 	-1.93124e-77
0.6888 	-3.55294e-77
0.6895 	-2.68557e-76
0.6902 	-3.68065e-76
0.6909 	-1.33778e-76
0.6916 	-1.61163e-77
0.6923 	-1.55268e-77
0.693 	-1.51199e-77
0.6937 	-1.4713e-77
0.6944 	-1.72077e-76
0.6951 	-2.92994e-76
0.6958 	-1.22407e-76
0.6965 	-1.25699e-77
0.6972 	-1.22529e-77
0.6979 	-1.20655e-77
0.6986 	-1.18781e-77
0.6993 	-1.23482e-76
0.7 	-2.65575e-76
