0 	1
0.0007 	1
0.0014 	1
0.0021 	1
0.0028 	1
0.0035 	1
0.0042 	1
0.0049 	1
0.0056 	1
0.0063 	1
0.007 	1
0.0077 	1
0.0084 	1
0.0091 	1
0.0098 	1
0.0105 	1
0.0112 	1
0.0119 	1
0.0126 	1
0.0133 	1
0.014 	1
0.0147 	1
0.0154 	1
0.0161 	1
0.0168 	1
0.0175 	1
0.0182 	1
0.0189 	1
0.0196 	1
0.0203 	1
0.021 	1
0.0217 	1
0.0224 	1
0.0231 	1
0.0238 	1
0.0245 	1
0.0252 	1
0.0259 	1
0.0266 	1
0.0273 	1
0.028 	1
0.0287 	1
0.0294 	1
0.0301 	1
0.0308 	1
0.0315 	1
0.0322 	1
0.0329 	1
0.0336 	1
0.0343 	1
0.035 	1
0.0357 	1
0.0364 	1
0.0371 	1
0.0378 	1
0.0385 	1
0.0392 	1
0.0399 	1
0.0406 	1
0.0413 	1
0.042 	1
0.0427 	1
0.0434 	1
0.0441 	1
0.0448 	1
0.0455 	1
0.0462 	1
0.0469 	1
0.0476 	1
0.0483 	1
0.049 	1
0.0497 	1
0.0504 	1
0.0511 	1
0.0518 	1
0.0525 	1
0.0532 	1
0.0539 	1
0.0546 	1
0.0553 	1
0.056 	1
0.0567 	1
0.0574 	1
0.0581 	1
0.0588 	1
0.0595 	1
0.0602 	1
0.0609 	1
0.0616 	1
0.0623 	1
0.063 	1
0.0637 	1
0.0644 	1
0.0651 	1
0.0658 	1
0.0665 	1
0.0672 	1
0.0679 	1
0.0686 	1
0.0693 	1
0.07 	1
0.0707 	1
0.0714 	1
0.0721 	1
0.0728 	1
0.0735 	1
0.0742 	1
0.0749 	1
0.0756 	1
0.0763 	1
0.077 	1
0.0777 	1
0.0784 	1
0.0791 	1
0.0798 	1
0.0805 	1
0.0812 	1
0.0819 	1
0.0826 	1
0.0833 	1
0.084 	1
0.0847 	1
0.0854 	1
0.0861 	1
0.0868 	1
0.0875 	1
0.0882 	1
0.0889 	1
0.0896 	1
0.0903 	1
0.091 	1
0.0917 	1
0.0924 	1
0.0931 	1
0.0938 	1
0.0945 	1
0.0952 	1
0.0959 	1
0.0966 	1
0.0973 	1
0.098 	1
0.0987 	1
0.0994 	1
0.1001 	1
0.1008 	1
0.1015 	1
0.1022 	1
0.1029 	1
0.1036 	1
0.1043 	1
0.105 	1
0.1057 	1
0.1064 	1
0.1071 	1
0.1078 	1
0.1085 	1
0.1092 	1
0.1099 	1
0.1106 	1
0.1113 	1
0.112 	1
0.1127 	1
0.1134 	1
0.1141 	1
0.1148 	1
0.1155 	1
0.1162 	1
0.1169 	1
0.1176 	1
0.1183 	1
0.119 	1
0.1197 	1
0.1204 	1
0.1211 	1
0.1218 	1
0.1225 	1
0.1232 	1
0.1239 	1
0.1246 	1
0.1253 	1
0.126 	1
0.1267 	1
0.1274 	1
0.1281 	1
0.1288 	1
0.1295 	1
0.1302 	1
0.1309 	1
0.1316 	1
0.1323 	1
0.133 	1
0.1337 	1
0.1344 	1
0.1351 	1
0.1358 	1
0.1365 	1
0.1372 	1
0.1379 	1
0.1386 	1
0.1393 	1
0.14 	1
0.1407 	1
0.1414 	1
0.1421 	1
0.1428 	1
0.1435 	1
0.1442 	1
0.1449 	1
0.1456 	1
0.1463 	1
0.147 	1
0.1477 	1
0.1484 	1
0.1491 	1
0.1498 	1
0.1505 	1
0.1512 	1
0.1519 	1
0.1526 	1
0.1533 	1
0.154 	1
0.1547 	1
0.1554 	1
0.1561 	1
0.1568 	1
0.1575 	1
0.1582 	1
0.1589 	1
0.1596 	1
0.1603 	1
0.161 	1
0.1617 	1
0.1624 	1
0.1631 	1
0.1638 	1
0.1645 	1
0.1652 	1
0.1659 	1
0.1666 	1
0.1673 	1
0.168 	1
0.1687 	1
0.1694 	1
0.1701 	1
0.1708 	1
0.1715 	1
0.1722 	1
0.1729 	1
0.1736 	1
0.1743 	1
0.175 	1
0.1757 	1
0.1764 	1
0.1771 	1
0.1778 	1
0.1785 	1
0.1792 	1
0.1799 	1
0.1806 	1
0.1813 	1
0.182 	1
0.1827 	1
0.1834 	1
0.1841 	1
0.1848 	1
0.1855 	1
0.1862 	1
0.1869 	1
0.1876 	1
0.1883 	1
0.189 	1
0.1897 	1
0.1904 	1
0.1911 	1
0.1918 	1
0.1925 	1
0.1932 	1
0.1939 	1
0.1946 	1
0.1953 	1
0.196 	1
0.1967 	1
0.1974 	1
0.1981 	1
0.1988 	1
0.1995 	1
0.2002 	1
0.2009 	1
0.2016 	1
0.2023 	1
0.203 	1
0.2037 	1
0.2044 	1
0.2051 	1
0.2058 	1
0.2065 	1
0.2072 	1
0.2079 	1
0.2086 	1
0.2093 	1
0.21 	1
0.2107 	1
0.2114 	1
0.2121 	1
0.2128 	1
0.2135 	1
0.2142 	1
0.2149 	1
0.2156 	1
0.2163 	1
0.217 	1
0.2177 	1
0.2184 	1
0.2191 	1
0.2198 	1
0.2205 	1
0.2212 	1
0.2219 	1
0.2226 	1
0.2233 	1
0.224 	1
0.2247 	1
0.2254 	1
0.2261 	1
0.2268 	1
0.2275 	1
0.2282 	1
0.2289 	1
0.2296 	1
0.2303 	1
0.231 	1
0.2317 	1
0.2324 	0.999994
0.2331 	0.99998
0.2338 	0.999966
0.2345 	0.999952
0.2352 	0.999944
0.2359 	0.999955
0.2366 	0.99989
0.2373 	0.999526
0.238 	0.998355
0.2387 	0.997185
0.2394 	0.995874
0.2401 	0.99478
0.2408 	0.995051
0.2415 	0.993464
0.2422 	0.987657
0.2429 	0.970841
0.2436 	0.954024
0.2443 	0.93312
0.245 	0.9111
0.2457 	0.901074
0.2464 	0.88577
0.2471 	0.851115
0.2478 	0.797768
0.2485 	0.743033
0.2492 	0.67246
0.2499 	0.593088
0.2506 	0.515596
0.2513 	0.439583
0.252 	0.37871
0.2527 	0.324513
0.2534 	0.272114
0.2541 	0.227868
0.2548 	0.191775
0.2555 	0.146409
0.2562 	0.0973336
0.2569 	0.0613237
0.2576 	0.0398301
0.2583 	0.025776
0.259 	0.0167496
0.2597 	0.016773
0.2604 	0.0139602
0.2611 	0.00902027
0.2618 	0.00467345
0.2625 	0.00220372
0.2632 	0.001436
0.2639 	0.000830412
0.2646 	0.000819308
0.2653 	0.000711519
0.266 	0.000474815
0.2667 	0.000263122
0.2674 	0.000122186
0.2681 	8.27819e-05
0.2688 	4.61627e-05
0.2695 	4.57391e-05
0.2702 	4.16362e-05
0.2709 	2.83348e-05
0.2716 	1.61067e-05
0.2723 	6.89526e-06
0.273 	4.73603e-06
0.2737 	2.57679e-06
0.2744 	2.41565e-06
0.2751 	2.30791e-06
0.2758 	1.5984e-06
0.2765 	9.28917e-07
0.2772 	3.66965e-07
0.2779 	2.55235e-07
0.2786 	1.43505e-07
0.2793 	1.20071e-07
0.28 	1.20717e-07
0.2807 	8.48656e-08
0.2814 	5.0186e-08
0.2821 	1.98026e-08
0.2828 	1.26356e-08
0.2835 	7.21319e-09
0.2842 	5.31659e-09
0.2849 	5.37876e-09
0.2856 	4.0056e-09
0.2863 	2.41014e-09
0.287 	1.03464e-09
0.2877 	5.55593e-10
0.2884 	3.1896e-10
0.2891 	2.01093e-10
0.2898 	2.0199e-10
0.2905 	1.59913e-10
0.2912 	1.00645e-10
0.2919 	4.94373e-11
0.2926 	2.55172e-11
0.2933 	1.6327e-11
0.294 	1.02412e-11
0.2947 	9.74309e-12
0.2954 	8.49875e-12
0.2961 	6.69473e-12
0.2968 	5.19507e-12
0.2975 	4.2413e-12
0.2982 	3.74817e-12
0.2989 	3.33797e-12
0.2996 	3.23187e-12
0.3003 	3.07367e-12
0.301 	2.846e-12
0.3017 	2.65426e-12
0.3024 	2.4834e-12
0.3031 	2.31417e-12
0.3038 	2.14893e-12
0.3045 	2.03547e-12
0.3052 	1.86789e-12
0.3059 	1.56502e-12
0.3066 	1.30253e-12
0.3073 	1.10178e-12
0.308 	9.78878e-13
0.3087 	8.55977e-13
0.3094 	8.07818e-13
0.3101 	7.47817e-13
0.3108 	5.82268e-13
0.3115 	4.31177e-13
0.3122 	3.1176e-13
0.3129 	2.64782e-13
0.3136 	2.17804e-13
0.3143 	2.02455e-13
0.315 	1.95731e-13
0.3157 	1.51988e-13
0.3164 	1.10234e-13
0.3171 	7.57702e-14
0.3178 	6.29569e-14
0.3185 	5.17894e-14
0.3192 	4.65416e-14
0.3199 	4.45826e-14
0.3206 	3.50837e-14
0.3213 	2.44848e-14
0.322 	1.59226e-14
0.3227 	1.20517e-14
0.3234 	9.45517e-15
0.3241 	7.94643e-15
0.3248 	7.52547e-15
0.3255 	6.0901e-15
0.3262 	4.24896e-15
0.3269 	2.7473e-15
0.3276 	1.9269e-15
0.3283 	1.46956e-15
0.329 	1.14165e-15
0.3297 	1.04672e-15
0.3304 	8.77352e-16
0.3311 	6.52161e-16
0.3318 	4.63866e-16
0.3325 	3.39022e-16
0.3332 	2.67468e-16
0.3339 	2.05905e-16
0.3346 	1.80973e-16
0.3353 	1.54174e-16
0.336 	1.24882e-16
0.3367 	1.00033e-16
0.3374 	8.05203e-17
0.3381 	6.61648e-17
0.3388 	5.23021e-17
0.3395 	4.4846e-17
0.3402 	3.75308e-17
0.3409 	3.05676e-17
0.3416 	2.45472e-17
0.3423 	1.9756e-17
0.343 	1.60138e-17
0.3437 	1.22716e-17
0.3444 	1.02851e-17
0.3451 	8.43799e-18
0.3458 	6.61706e-18
0.3465 	4.98832e-18
0.3472 	3.73719e-18
0.3479 	2.89703e-18
0.3486 	2.05686e-18
0.3493 	1.64102e-18
0.35 	1.3409e-18
0.3507 	1.02355e-18
0.3514 	7.2683e-19
0.3521 	5.05741e-19
0.3528 	3.70419e-19
0.3535 	2.41692e-19
0.3542 	1.75099e-19
0.3549 	1.43024e-19
0.3556 	1.07852e-19
0.3563 	7.29471e-20
0.357 	4.82355e-20
0.3577 	3.25743e-20
0.3584 	1.93826e-20
0.3591 	1.17072e-20
0.3598 	9.54788e-21
0.3605 	7.17192e-21
0.3612 	4.70927e-21
0.3619 	2.96336e-21
0.3626 	1.81414e-21
0.3633 	9.66056e-22
0.364 	3.95601e-22
0.3647 	3.24879e-22
0.3654 	2.46025e-22
0.3661 	1.61072e-22
0.3668 	9.64983e-23
0.3675 	5.34296e-23
0.3682 	2.63278e-23
0.3689 	4.86029e-24
0.3696 	4.05165e-24
0.3703 	3.1351e-24
0.371 	2.07466e-24
0.3717 	1.2079e-24
0.3724 	6.09213e-25
0.3731 	2.99895e-25
0.3738 	1.25473e-26
0.3745 	1.07982e-26
0.3752 	8.74457e-27
0.3759 	5.92938e-27
0.3766 	3.53011e-27
0.3773 	1.78745e-27
0.378 	9.3004e-28
0.3787 	7.26297e-29
0.3794 	9.95326e-30
0.3801 	8.30061e-30
0.3808 	6.00231e-30
0.3815 	4.15783e-30
0.3822 	3.1103e-30
0.3829 	1.80116e-30
0.3836 	4.92019e-31
0.3843 	1.95134e-31
0.385 	1.74315e-31
0.3857 	1.40345e-31
0.3864 	1.11136e-31
0.3871 	9.93852e-32
0.3878 	7.37561e-32
0.3885 	4.70475e-32
0.3892 	3.47601e-32
0.3899 	3.04843e-32
0.3906 	2.4121e-32
0.3913 	1.77348e-32
0.392 	1.55756e-32
0.3927 	1.12056e-32
0.3934 	6.22964e-33
0.3941 	3.55072e-33
0.3948 	3.16883e-33
0.3955 	2.53991e-33
0.3962 	1.81219e-33
0.3969 	1.57111e-33
0.3976 	1.14528e-33
0.3983 	5.95484e-34
0.399 	2.34413e-34
0.3997 	2.13041e-34
0.4004 	1.75131e-34
0.4011 	1.24819e-34
0.4018 	1.04425e-34
0.4025 	7.88876e-35
0.4032 	3.99892e-35
0.4039 	9.31092e-36
0.4046 	8.77238e-36
0.4053 	7.55131e-36
0.406 	5.42019e-36
0.4067 	4.39154e-36
0.4074 	3.50898e-36
0.4081 	1.78264e-36
0.4088 	1.79546e-37
0.4095 	1.78622e-37
0.4102 	1.65108e-37
0.4109 	1.20115e-37
0.4116 	9.43174e-38
0.4123 	8.09255e-38
0.413 	4.24438e-38
0.4137 	3.96204e-39
0.4144 	1.3019e-39
0.4151 	1.33394e-39
0.4158 	9.86543e-40
0.4165 	7.51036e-40
0.4172 	6.97321e-40
0.4179 	3.83289e-40
0.4186 	6.92574e-41
0.4193 	2.25804e-42
0.42 	2.63032e-42
0.4207 	1.97593e-42
0.4214 	1.45391e-42
0.4221 	1.41726e-42
0.4228 	8.40675e-43
0.4235 	2.21622e-43
0.4242 	6.34345e-46
0.4249 	7.91285e-46
0.4256 	6.41277e-46
0.4263 	4.54075e-46
0.427 	4.4842e-46
0.4277 	2.93696e-46
0.4284 	9.7932e-47
0.4291 	5.82025e-50
0.4298 	7.35528e-50
0.4305 	6.41817e-50
0.4312 	4.4922e-50
0.4319 	4.30815e-50
0.4326 	3.08599e-50
0.4333 	1.20785e-50
0.434 	5.30842e-54
0.4347 	6.7876e-54
0.4354 	6.37381e-54
0.4361 	4.54029e-54
0.4368 	4.11174e-54
0.4375 	3.19712e-54
0.4382 	1.40698e-54
0.4389 	4.80993e-58
0.4396 	6.21874e-58
0.4403 	6.28018e-58
0.441 	4.54514e-58
0.4417 	3.89866e-58
0.4424 	3.26957e-58
0.4431 	1.57446e-58
0.4438 	4.34161e-62
0.4445 	5.67914e-62
0.4452 	6.16631e-62
0.4459 	4.52758e-62
0.4466 	3.68898e-62
0.4473 	3.31861e-62
0.448 	1.71672e-62
0.4487 	1.14818e-63
0.4494 	5.18285e-66
0.4501 	6.0529e-66
0.4508 	4.50337e-66
0.4515 	3.49466e-66
0.4522 	3.35678e-66
0.4529 	1.84098e-66
0.4536 	3.25187e-67
0.4543 	4.73041e-70
0.455 	5.94852e-70
0.4557 	4.47973e-70
0.4564 	3.31883e-70
0.4571 	3.2869e-70
0.4578 	1.95222e-70
0.4585 	5.14002e-71
0.4592 	4.31155e-74
0.4599 	5.48044e-74
0.4606 	4.4525e-74
0.4613 	3.15595e-74
0.462 	3.12729e-74
0.4627 	2.05038e-74
0.4634 	6.83678e-75
0.4641 	3.44575e-78
0.4648 	3.72174e-78
0.4655 	3.459e-78
0.4662 	2.98077e-78
0.4669 	2.92234e-78
0.4676 	2.07917e-78
0.4683 	7.77345e-79
0.469 	-4.50469e-79
0.4697 	-1.54507e-78
0.4704 	-1.39022e-78
0.4711 	-2.98277e-79
0.4718 	-6.48285e-80
0.4725 	-6.71835e-80
0.4732 	-7.12224e-80
0.4739 	-3.45605e-79
0.4746 	-1.61123e-78
0.4753 	-1.79288e-78
0.476 	-5.29229e-79
0.4767 	-7.82372e-80
0.4774 	-7.94313e-80
0.4781 	-8.19072e-80
0.4788 	-1.82494e-79
0.4795 	-1.55848e-78
0.4802 	-2.14856e-78
0.4809 	-7.73876e-79
0.4816 	-8.66684e-80
0.4823 	-8.7169e-80
0.483 	-8.8509e-80
0.4837 	-8.98489e-80
0.4844 	-1.40623e-78
0.4851 	-2.41884e-78
0.4858 	-1.00183e-78
0.4865 	-9.0907e-80
0.4872 	-9.09574e-80
0.4879 	-9.10914e-80
0.4886 	-9.12254e-80
0.4893 	-1.18343e-78
0.49 	-2.57346e-78
0.4907 	-1.18318e-78
0.4914 	-9.07702e-80
0.4921 	-9.05942e-80
0.4928 	-8.96532e-80
0.4935 	-8.86508e-80
0.4942 	-9.24896e-79
0.4949 	-2.22627e-78
0.4956 	-1.29591e-78
0.4963 	-8.65769e-80
0.497 	-8.62165e-80
0.4977 	-8.46142e-80
0.4984 	-8.26672e-80
0.4991 	-6.64667e-79
0.4998 	-1.83061e-78
0.5005 	-1.32986e-78
0.5012 	-1.62431e-79
0.5019 	-7.85853e-80
0.5026 	-7.67354e-80
0.5033 	-7.41207e-80
0.504 	-4.30155e-79
0.5047 	-1.43175e-78
0.5054 	-1.28762e-78
0.5061 	-2.84203e-79
0.5068 	-6.87416e-80
0.5075 	-6.69816e-80
0.5082 	-6.40085e-80
0.5089 	-2.38767e-79
0.5096 	-1.0652e-78
0.5103 	-1.18242e-78
0.511 	-3.54032e-79
0.5117 	-5.78067e-80
0.5124 	-5.63583e-80
0.5131 	-5.33164e-80
0.5138 	-9.7352e-80
0.5145 	-7.53374e-79
0.5152 	-1.03398e-78
0.5159 	-3.76043e-79
0.5166 	-4.68031e-80
0.5173 	-4.57682e-80
0.518 	-4.28924e-80
0.5187 	-4.00166e-80
0.5194 	-5.05729e-79
0.5201 	-8.63878e-79
0.5208 	-3.60384e-79
0.5215 	-3.65369e-80
0.5222 	-3.59174e-80
0.5229 	-3.33689e-80
0.5236 	-3.08203e-80
0.5243 	-3.21222e-79
0.525 	-6.91519e-79
0.5257 	-3.19737e-79
0.5264 	-2.75361e-80
0.5271 	-2.71373e-80
0.5278 	-2.51312e-80
0.5285 	-2.2995e-80
0.5292 	-1.91956e-79
0.5299 	-4.55971e-79
0.5306 	-2.66357e-79
0.5313 	-2.00602e-80
0.532 	-1.97443e-80
0.5327 	-1.83422e-80
0.5334 	-1.66377e-80
0.5341 	-1.06824e-79
0.5348 	-2.889e-79
0.5355 	-2.10203e-79
0.5362 	-2.71979e-80
0.5369 	-1.39038e-80
0.5376 	-1.29862e-80
0.5383 	-1.16858e-80
0.539 	-5.42789e-80
0.5397 	-1.7588e-79
0.5404 	-1.58116e-79
0.5411 	-3.58282e-80
0.5418 	-9.48734e-81
0.5425 	-8.92755e-81
0.5432 	-7.97565e-81
0.5439 	-2.40998e-80
0.5446 	-1.02835e-79
0.5453 	-1.13875e-79
0.546 	-3.46519e-80
0.5467 	-6.28021e-81
0.5474 	-5.96504e-81
0.5481 	-5.29446e-81
0.5488 	-8.20584e-81
0.5495 	-5.76814e-80
0.5502 	-7.87902e-80
0.5509 	-2.89819e-80
0.5516 	-4.03707e-81
0.5523 	-3.877e-81
0.553 	-3.4212e-81
0.5537 	-2.96539e-81
0.5544 	-3.09794e-80
0.5551 	-5.25224e-80
0.5558 	-2.20994e-80
0.5565 	-2.52288e-81
0.5572 	-2.4535e-81
0.5579 	-2.15383e-81
0.5586 	-1.85416e-81
0.5593 	-1.58811e-80
0.56 	-3.38153e-80
0.5607 	-1.57417e-80
0.5614 	-1.53381e-81
0.5621 	-1.50073e-81
0.5628 	-1.32179e-81
0.5635 	-1.13097e-81
0.5642 	-7.72684e-81
0.5649 	-1.80931e-80
0.5656 	-1.06149e-80
0.5663 	-9.07789e-82
0.567 	-8.87663e-82
0.5677 	-7.91196e-82
0.5684 	-6.73416e-82
0.5691 	-3.53326e-81
0.5698 	-9.37071e-81
0.5705 	-6.83217e-81
0.5712 	-9.4325e-82
0.5719 	-5.11564e-82
0.5726 	-4.62177e-82
0.5733 	-3.91589e-82
0.574 	-1.49058e-81
0.5747 	-4.69478e-81
0.5754 	-4.21993e-81
0.5761 	-9.85804e-82
0.5768 	-2.8741e-82
0.5775 	-2.63574e-82
0.5782 	-2.22445e-82
0.5789 	-5.57728e-82
0.5796 	-2.27318e-81
0.5803 	-2.511e-81
0.581 	-7.7865e-82
0.5817 	-1.57505e-82
0.5824 	-1.46814e-82
0.5831 	-1.23507e-82
0.5838 	-1.65901e-82
0.5845 	-1.06238e-81
0.5852 	-1.44393e-81
0.5859 	-5.38168e-82
0.5866 	-8.42484e-83
0.5873 	-7.99124e-83
0.588 	-6.70519e-83
0.5887 	-5.41914e-83
0.5894 	-4.78103e-82
0.5901 	-8.04185e-82
0.5908 	-3.41704e-82
0.5915 	-4.40035e-83
0.5922 	-4.25173e-83
0.5929 	-3.56019e-83
0.5936 	-2.86866e-83
0.5943 	-2.06425e-82
0.595 	-4.34522e-82
0.5957 	-2.03832e-82
0.5964 	-2.24532e-83
0.5971 	-2.18881e-83
0.5978 	-1.84942e-83
0.5985 	-1.48686e-83
0.5992 	-8.5038e-83
0.5999 	-1.96204e-82
0.6006 	-1.15669e-82
0.6013 	-1.11979e-83
0.602 	-1.09133e-83
0.6027 	-9.40196e-84
0.6034 	-7.54735e-84
0.6041 	-3.31103e-83
0.6048 	-8.60906e-83
0.6055 	-6.2917e-83
0.6062 	-9.28185e-84
0.6069 	-5.32083e-84
0.6076 	-4.67886e-84
0.6083 	-3.75258e-84
0.609 	-1.19788e-83
0.6097 	-3.66793e-83
0.6104 	-3.29693e-83
0.6111 	-7.95138e-84
0.6118 	-2.53761e-84
0.6125 	-2.27978e-84
0.6132 	-1.82785e-84
0.6139 	-3.88783e-84
0.6146 	-1.51581e-83
0.6153 	-1.67037e-83
0.616 	-5.28319e-84
0.6167 	-1.18418e-84
0.6174 	-1.0878e-84
0.6181 	-8.72325e-85
0.6188 	-1.03184e-84
0.6195 	-6.06604e-84
0.6202 	-8.20368e-84
0.6209 	-3.09994e-84
0.6216 	-5.40841e-85
0.6223 	-5.08359e-85
0.623 	-4.07916e-85
0.6237 	-3.07474e-85
0.6244 	-2.34492e-84
0.6251 	-3.91321e-84
0.6258 	-1.67984e-84
0.6265 	-2.41782e-85
0.6272 	-2.32675e-85
0.6279 	-1.86888e-85
0.6286 	-1.41102e-85
0.6293 	-8.7232e-85
0.63 	-1.81545e-84
0.6307 	-8.58389e-85
0.6314 	-1.05805e-85
0.6321 	-1.02962e-85
0.6328 	-8.38842e-86
0.6335 	-6.34707e-86
0.6342 	-3.1052e-85
0.6349 	-7.06158e-85
0.6356 	-4.18388e-85
0.6363 	-4.53206e-86
0.637 	-4.41001e-86
0.6377 	-3.68796e-86
0.6384 	-2.79778e-86
0.6391 	-1.04796e-85
0.6398 	-2.67334e-85
0.6405 	-1.95849e-85
0.6412 	-3.07554e-86
0.6419 	-1.84865e-86
0.6426 	-1.58777e-86
0.6433 	-1.20809e-86
0.644 	-3.29905e-86
0.6447 	-9.8371e-86
0.6454 	-8.84255e-86
0.6461 	-2.19852e-86
0.6468 	-7.58226e-87
0.6475 	-6.69137e-87
0.6482 	-5.10768e-87
0.6489 	-9.37943e-87
0.6496 	-3.51208e-86
0.6503 	-3.8614e-86
0.651 	-1.24429e-86
0.6517 	-3.04154e-87
0.6524 	-2.759e-87
0.6531 	-2.11323e-87
0.6538 	-2.22188e-87
0.6545 	-1.21377e-86
0.6552 	-1.63386e-86
0.6559 	-6.25242e-87
0.6566 	-1.19263e-87
0.6573 	-1.11233e-87
0.658 	-8.55057e-88
0.6587 	-5.97783e-88
0.6594 	-4.04767e-87
0.6601 	-6.70613e-87
0.6608 	-2.90504e-87
0.6615 	-4.56888e-88
0.6622 	-4.38234e-88
0.6629 	-3.3814e-88
0.6636 	-2.38047e-88
0.6643 	-1.29699e-87
0.665 	-2.67202e-87
0.6657 	-1.27198e-87
0.6664 	-1.70907e-88
0.6671 	-1.66085e-88
0.6678 	-1.30607e-88
0.6685 	-9.26009e-89
0.6692 	-3.96899e-88
0.6699 	-8.91365e-88
0.6706 	-5.30249e-88
0.6713 	-6.23884e-89
0.672 	-6.06191e-89
0.6727 	-4.92379e-89
0.6734 	-3.51607e-89
0.6741 	-1.14908e-88
0.6748 	-2.88478e-88
0.6755 	-2.11707e-88
0.6762 	-3.47993e-89
0.6769 	-2.15741e-89
0.6776 	-1.80986e-89
0.6783 	-1.30115e-89
0.679 	-3.09462e-89
0.6797 	-9.03197e-89
0.6804 	-8.11655e-89
0.6811 	-2.06154e-89
0.6818 	-7.4657e-90
0.6825 	-6.46416e-90
0.6832 	-4.66818e-90
0.6839 	-7.4641e-90
0.6846 	-2.70968e-89
0.6853 	-2.97273e-89
0.686 	-9.68812e-90
0.6867 	-2.48217e-90
0.6874 	-2.21415e-90
0.6881 	-1.59378e-90
0.6888 	-1.45132e-90
0.6895 	-7.52157e-90
0.6902 	-1.00837e-89
0.6909 	-3.87559e-90
0.6916 	-7.58775e-91
0.6923 	-6.95407e-91
0.693 	-4.89129e-91
0.6937 	-2.82851e-91
0.6944 	-1.72719e-90
0.6951 	-2.84328e-90
0.6958 	-1.22805e-90
0.6965 	-1.87058e-91
0.6972 	-1.76333e-91
0.6979 	-1.18366e-91
0.6986 	-6.03991e-92
0.6993 	-4.97856e-92
0.7 	-5.20866e-92
