0 	1
0.0007 	1
0.0014 	1
0.0021 	1
0.0028 	1
0.0035 	1
0.0042 	1
0.0049 	1
0.0056 	1
0.0063 	1
0.007 	1
0.0077 	1
0.0084 	1
0.0091 	1
0.0098 	1
0.0105 	1
0.0112 	1
0.0119 	1
0.0126 	1
0.0133 	1
0.014 	1
0.0147 	1
0.0154 	1
0.0161 	1
0.0168 	1
0.0175 	1
0.0182 	1
0.0189 	1
0.0196 	1
0.0203 	1
0.021 	1
0.0217 	1
0.0224 	1
0.0231 	1
0.0238 	1
0.0245 	1
0.0252 	1
0.0259 	1
0.0266 	1
0.0273 	1
0.028 	1
0.0287 	1
0.0294 	1
0.0301 	1
0.0308 	1
0.0315 	1
0.0322 	1
0.0329 	1
0.0336 	1
0.0343 	1
0.035 	1
0.0357 	1
0.0364 	1
0.0371 	1
0.0378 	1
0.0385 	1
0.0392 	1
0.0399 	1
0.0406 	1
0.0413 	1
0.042 	1
0.0427 	1
0.0434 	1
0.0441 	1
0.0448 	1
0.0455 	1
0.0462 	1
0.0469 	1
0.0476 	1
0.0483 	1
0.049 	1
0.0497 	1
0.0504 	1
0.0511 	1
0.0518 	1
0.0525 	1
0.0532 	1
0.0539 	1
0.0546 	1
0.0553 	1
0.056 	1
0.0567 	1
0.0574 	1
0.0581 	1
0.0588 	1
0.0595 	1
0.0602 	1
0.0609 	1
0.0616 	1
0.0623 	1
0.063 	1
0.0637 	1
0.0644 	1
0.0651 	1
0.0658 	1
0.0665 	1
0.0672 	1
0.0679 	1
0.0686 	1
0.0693 	1
0.07 	1
0.0707 	1
0.0714 	1
0.0721 	1
0.0728 	1
0.0735 	1
0.0742 	1
0.0749 	1
0.0756 	1
0.0763 	1
0.077 	1
0.0777 	1
0.0784 	1
0.0791 	1
0.0798 	1
0.0805 	1
0.0812 	1
0.0819 	1
0.0826 	1
0.0833 	1
0.084 	1
0.0847 	1
0.0854 	1
0.0861 	1
0.0868 	1
0.0875 	1
0.0882 	1
0.0889 	1
0.0896 	1
0.0903 	1
0.091 	1
0.0917 	1
0.0924 	1
0.0931 	1
0.0938 	1
0.0945 	1
0.0952 	1
0.0959 	1
0.0966 	1
0.0973 	1
0.098 	1
0.0987 	1
0.0994 	1
0.1001 	1
0.1008 	1
0.1015 	1
0.1022 	1
0.1029 	1
0.1036 	1
0.1043 	1
0.105 	1
0.1057 	1
0.1064 	1
0.1071 	1
0.1078 	1
0.1085 	1
0.1092 	1
0.1099 	1
0.1106 	1
0.1113 	1
0.112 	1
0.1127 	1
0.1134 	1
0.1141 	1
0.1148 	1
0.1155 	1
0.1162 	1
0.1169 	1
0.1176 	1
0.1183 	1
0.119 	1
0.1197 	1
0.1204 	1
0.1211 	1
0.1218 	1
0.1225 	1
0.1232 	1
0.1239 	1
0.1246 	1
0.1253 	1
0.126 	1
0.1267 	1
0.1274 	1
0.1281 	1
0.1288 	1
0.1295 	1
0.1302 	1
0.1309 	1
0.1316 	1
0.1323 	1
0.133 	1
0.1337 	1
0.1344 	1
0.1351 	1
0.1358 	1
0.1365 	1
0.1372 	1
0.1379 	1
0.1386 	1
0.1393 	1
0.14 	1
0.1407 	1
0.1414 	1
0.1421 	1
0.1428 	1
0.1435 	1
0.1442 	1
0.1449 	1
0.1456 	1
0.1463 	1
0.147 	1
0.1477 	1
0.1484 	1
0.1491 	1
0.1498 	1
0.1505 	1
0.1512 	1
0.1519 	1
0.1526 	1
0.1533 	1
0.154 	1
0.1547 	1
0.1554 	1
0.1561 	1
0.1568 	1
0.1575 	1
0.1582 	1
0.1589 	1
0.1596 	1
0.1603 	1
0.161 	1
0.1617 	1
0.1624 	1
0.1631 	1
0.1638 	1
0.1645 	1
0.1652 	1
0.1659 	1
0.1666 	1
0.1673 	1
0.168 	1
0.1687 	1
0.1694 	1
0.1701 	1
0.1708 	1
0.1715 	1
0.1722 	1
0.1729 	1
0.1736 	1
0.1743 	1
0.175 	1
0.1757 	1
0.1764 	1
0.1771 	1
0.1778 	1
0.1785 	1
0.1792 	1
0.1799 	1
0.1806 	1
0.1813 	1
0.182 	1
0.1827 	1
0.1834 	1
0.1841 	1
0.1848 	1
0.1855 	1
0.1862 	1
0.1869 	1
0.1876 	1
0.1883 	1
0.189 	1
0.1897 	1
0.1904 	1
0.1911 	1
0.1918 	1
0.1925 	1
0.1932 	1
0.1939 	1
0.1946 	1
0.1953 	1
0.196 	1
0.1967 	1
0.1974 	1
0.1981 	1
0.1988 	1
0.1995 	1
0.2002 	1
0.2009 	1
0.2016 	1
0.2023 	1
0.203 	1
0.2037 	1
0.2044 	1
0.2051 	1
0.2058 	1
0.2065 	1
0.2072 	1
0.2079 	1
0.2086 	1
0.2093 	1
0.21 	1
0.2107 	1
0.2114 	1
0.2121 	1
0.2128 	1
0.2135 	1
0.2142 	1
0.2149 	1
0.2156 	1
0.2163 	1
0.217 	1
0.2177 	1
0.2184 	1
0.2191 	1
0.2198 	1
0.2205 	1
0.2212 	1
0.2219 	1
0.2226 	1
0.2233 	1
0.224 	1
0.2247 	1
0.2254 	1
0.2261 	1
0.2268 	1
0.2275 	1
0.2282 	1
0.2289 	1
0.2296 	1
0.2303 	1
0.231 	1
0.2317 	1
0.2324 	1
0.2331 	1
0.2338 	1
0.2345 	1
0.2352 	1
0.2359 	1
0.2366 	1
0.2373 	1
0.238 	1
0.2387 	1
0.2394 	1
0.2401 	1
0.2408 	1
0.2415 	1
0.2422 	1
0.2429 	1
0.2436 	1
0.2443 	1
0.245 	1
0.2457 	1
0.2464 	1
0.2471 	1
0.2478 	1
0.2485 	1
0.2492 	1
0.2499 	1
0.2506 	1
0.2513 	1
0.252 	1
0.2527 	1
0.2534 	1
0.2541 	1
0.2548 	1
0.2555 	1
0.2562 	1
0.2569 	1
0.2576 	1
0.2583 	1
0.259 	1
0.2597 	1
0.2604 	1
0.2611 	1
0.2618 	1
0.2625 	1
0.2632 	1
0.2639 	1
0.2646 	1
0.2653 	1
0.266 	1
0.2667 	1
0.2674 	1
0.2681 	1
0.2688 	1
0.2695 	1
0.2702 	1
0.2709 	1
0.2716 	1
0.2723 	1
0.273 	1
0.2737 	1
0.2744 	0.999999
0.2751 	0.999999
0.2758 	0.999999
0.2765 	0.999998
0.2772 	0.999992
0.2779 	0.999985
0.2786 	0.999977
0.2793 	0.999967
0.28 	0.999957
0.2807 	0.999955
0.2814 	0.999912
0.2821 	0.99943
0.2828 	0.998672
0.2835 	0.997913
0.2842 	0.997034
0.2849 	0.996087
0.2856 	0.9957
0.2863 	0.994998
0.287 	0.985958
0.2877 	0.971745
0.2884 	0.957531
0.2891 	0.94046
0.2898 	0.920531
0.2905 	0.90384
0.2912 	0.888444
0.2919 	0.846526
0.2926 	0.791435
0.2933 	0.736343
0.294 	0.672321
0.2947 	0.592223
0.2954 	0.510625
0.2961 	0.427903
0.2968 	0.36221
0.2975 	0.307035
0.2982 	0.251861
0.2989 	0.201188
0.2996 	0.16702
0.3003 	0.129194
0.301 	0.0864896
0.3017 	0.0523993
0.3024 	0.0372971
0.3031 	0.0231764
0.3038 	0.0100126
0.3045 	0.00928552
0.3052 	0.00795567
0.3059 	0.00511887
0.3066 	0.00256767
0.3073 	0.00162018
0.308 	0.00102155
0.3087 	0.000422913
0.3094 	0.000354542
0.3101 	0.000314963
0.3108 	0.000203421
0.3115 	0.000100164
0.3122 	5.38503e-05
0.3129 	3.05603e-05
0.3136 	7.27024e-06
0.3143 	2.18256e-06
0.315 	2.05896e-06
0.3157 	1.36005e-06
0.3164 	6.92396e-07
0.3171 	3.43808e-07
0.3178 	1.98502e-07
0.3185 	5.31952e-08
0.3192 	1.33177e-09
0.3199 	1.37957e-09
0.3206 	9.73676e-10
0.3213 	4.98049e-10
0.322 	2.12103e-10
0.3227 	1.3035e-10
0.3234 	4.85978e-11
0.3241 	7.72209e-12
0.3248 	7.72209e-12
0.3255 	7.72209e-12
0.3262 	7.72209e-12
0.3269 	7.73435e-12
0.3276 	7.75082e-12
0.3283 	7.76729e-12
0.329 	7.78817e-12
0.3297 	7.81698e-12
0.3304 	7.84585e-12
0.3311 	7.87475e-12
0.3318 	7.88651e-12
0.3325 	7.89158e-12
0.3332 	7.89664e-12
0.3339 	7.89712e-12
0.3346 	7.88077e-12
0.3353 	7.86578e-12
0.336 	7.85261e-12
0.3367 	7.8305e-12
0.3374 	7.78433e-12
0.3381 	7.73657e-12
0.3388 	7.68783e-12
0.3395 	7.62647e-12
0.3402 	7.5677e-12
0.3409 	7.51539e-12
0.3416 	7.45184e-12
0.3423 	7.35014e-12
0.343 	7.24078e-12
0.3437 	7.13143e-12
0.3444 	7.00163e-12
0.3451 	6.87206e-12
0.3458 	6.75324e-12
0.3465 	6.62475e-12
0.3472 	6.45354e-12
0.3479 	6.26771e-12
0.3486 	6.08188e-12
0.3493 	5.87521e-12
0.35 	5.66285e-12
0.3507 	5.45883e-12
0.3514 	5.2511e-12
0.3521 	5.01751e-12
0.3528 	4.77117e-12
0.3535 	4.52482e-12
0.3542 	4.26752e-12
0.3549 	4.00414e-12
0.3556 	3.73437e-12
0.3563 	3.46443e-12
0.357 	3.21026e-12
0.3577 	2.96407e-12
0.3584 	2.71787e-12
0.3591 	2.47781e-12
0.3598 	2.24388e-12
0.3605 	1.99116e-12
0.3612 	1.73094e-12
0.3619 	1.52011e-12
0.3626 	1.34799e-12
0.3633 	1.17586e-12
0.364 	1.01907e-12
0.3647 	8.89859e-13
0.3654 	7.44301e-13
0.3661 	5.86478e-13
0.3668 	4.63105e-13
0.3675 	3.87615e-13
0.3682 	3.12126e-13
0.3689 	2.45255e-13
0.3696 	2.09988e-13
0.3703 	1.68608e-13
0.371 	1.19079e-13
0.3717 	7.90067e-14
0.3724 	5.98022e-14
0.3731 	4.21167e-14
0.3738 	2.54595e-14
0.3745 	2.21702e-14
0.3752 	1.80603e-14
0.3759 	1.18994e-14
0.3766 	6.58606e-15
0.3773 	4.24844e-15
0.378 	2.5578e-15
0.3787 	8.67172e-16
0.3794 	6.94848e-16
0.3801 	6.15993e-16
0.3808 	3.97257e-16
0.3815 	1.95652e-16
0.3822 	1.03411e-16
0.3829 	5.88169e-17
0.3836 	1.42229e-17
0.3843 	4.7306e-18
0.385 	4.8111e-18
0.3857 	3.18895e-18
0.3864 	1.62361e-18
0.3871 	7.97268e-19
0.3878 	5.50705e-19
0.3885 	3.04143e-19
0.3892 	2.05983e-19
0.3899 	1.90266e-19
0.3906 	1.65553e-19
0.3913 	1.3962e-19
0.392 	1.20773e-19
0.3927 	1.08828e-19
0.3934 	9.68821e-20
0.3941 	8.68511e-20
0.3948 	7.87346e-20
0.3955 	6.82562e-20
0.3962 	5.68329e-20
0.3969 	4.77243e-20
0.3976 	4.20403e-20
0.3983 	3.63564e-20
0.399 	3.12676e-20
0.3997 	2.72499e-20
0.4004 	2.22962e-20
0.4011 	1.66405e-20
0.4018 	1.21539e-20
0.4025 	9.96236e-21
0.4032 	7.77077e-21
0.4039 	5.87267e-21
0.4046 	5.05059e-21
0.4053 	4.01072e-21
0.406 	2.68045e-21
0.4067 	1.58203e-21
0.4074 	1.12701e-21
0.4081 	7.28976e-22
0.4088 	3.56599e-22
0.4095 	3.1777e-22
0.4102 	2.62937e-22
0.4109 	1.68097e-22
0.4116 	8.4348e-23
0.4123 	4.99624e-23
0.413 	2.79326e-23
0.4137 	5.90275e-24
0.4144 	4.19054e-24
0.4151 	3.86118e-24
0.4158 	2.45236e-24
0.4165 	1.13215e-24
0.4172 	5.35444e-25
0.4179 	2.96906e-25
0.4186 	5.83691e-26
0.4193 	7.77166e-27
0.42 	8.42885e-27
0.4207 	5.37632e-27
0.4214 	2.4049e-27
0.4221 	8.1842e-28
0.4228 	4.71748e-28
0.4235 	1.25076e-28
0.4242 	1.4823e-30
0.4249 	1.81818e-30
0.4256 	1.26762e-30
0.4263 	5.73668e-31
0.427 	1.2582e-31
0.4277 	7.55189e-32
0.4284 	2.52175e-32
0.4291 	7.55813e-35
0.4298 	9.253e-35
0.4305 	7.14042e-35
0.4312 	3.50486e-35
0.4319 	7.14514e-36
0.4326 	4.44296e-36
0.4333 	1.74078e-36
0.434 	3.98829e-39
0.4347 	4.85028e-39
0.4354 	4.10957e-39
0.4361 	2.16683e-39
0.4368 	4.22019e-40
0.4375 	2.70602e-40
0.4382 	1.19185e-40
0.4389 	2.23596e-43
0.4396 	2.64531e-43
0.4403 	2.42381e-43
0.441 	1.36118e-43
0.4417 	3.6894e-44
0.4424 	1.81084e-44
0.4431 	8.76146e-45
0.4438 	8.15152e-47
0.4445 	7.22392e-47
0.4452 	5.95415e-47
0.4459 	3.82893e-47
0.4466 	1.97377e-47
0.4473 	1.16747e-47
0.448 	6.26351e-48
0.4487 	8.52332e-49
0.4494 	3.95104e-49
0.4501 	3.15161e-49
0.4508 	2.12653e-49
0.4515 	1.216e-49
0.4522 	7.39517e-50
0.4529 	4.1378e-50
0.4536 	8.80436e-51
0.4543 	1.58701e-51
0.455 	1.28485e-51
0.4557 	8.80185e-52
0.4564 	5.0156e-52
0.4571 	2.91702e-52
0.4578 	1.68721e-52
0.4585 	4.5739e-53
0.4592 	1.64223e-54
0.4599 	1.36951e-54
0.4606 	9.61595e-55
0.4613 	5.39199e-55
0.462 	2.85337e-55
0.4627 	1.71311e-55
0.4634 	5.72847e-56
0.4641 	2.55417e-58
0.4648 	2.22035e-58
0.4655 	1.62098e-58
0.4662 	9.15382e-59
0.4669 	4.21837e-59
0.4676 	2.62302e-59
0.4683 	1.02768e-59
0.469 	2.01368e-62
0.4697 	1.74725e-62
0.4704 	1.32429e-62
0.4711 	7.83923e-63
0.4718 	3.47715e-63
0.4725 	2.22954e-63
0.4732 	9.81932e-64
0.4739 	1.62667e-66
0.4746 	1.40269e-66
0.4753 	1.09486e-66
0.476 	6.75221e-67
0.4767 	3.18993e-67
0.4774 	1.92815e-67
0.4781 	9.29053e-68
0.4788 	1.31218e-70
0.4795 	1.12478e-70
0.4802 	8.98173e-71
0.4809 	5.73567e-71
0.4816 	2.88237e-71
0.4823 	1.6491e-71
0.483 	8.53477e-72
0.4837 	5.78552e-73
0.4844 	7.92851e-75
0.4851 	5.548e-75
0.4858 	4.09193e-75
0.4865 	2.49442e-75
0.4872 	1.37255e-75
0.4879 	7.51647e-76
0.4886 	1.30745e-76
0.4893 	-2.79692e-75
0.49 	-6.35368e-75
0.4907 	-2.80083e-75
0.4914 	-9.94616e-78
0.4921 	-1.23739e-77
0.4928 	-1.42066e-77
0.4935 	-1.60392e-77
0.4942 	-4.71466e-75
0.4949 	-1.20226e-74
0.4956 	-6.80714e-75
0.4963 	-2.63689e-77
0.497 	-2.94318e-77
0.4977 	-3.15188e-77
0.4984 	-3.36058e-77
0.4991 	-5.67859e-75
0.4998 	-1.69664e-74
0.5005 	-1.21326e-74
0.5012 	-8.50259e-76
0.5019 	-4.75027e-77
0.5026 	-4.95357e-77
0.5033 	-5.15688e-77
0.504 	-5.47233e-75
0.5047 	-2.06466e-74
0.5054 	-1.84818e-74
0.5061 	-3.31267e-75
0.5068 	-6.48601e-77
0.5075 	-6.66862e-77
0.5082 	-6.85122e-77
0.5089 	-4.05847e-75
0.5096 	-2.26713e-74
0.5103 	-2.53322e-74
0.511 	-6.72389e-75
0.5117 	-8.00585e-77
0.5124 	-8.17255e-77
0.5131 	-8.31984e-77
0.5138 	-1.60254e-75
0.5145 	-2.28533e-74
0.5152 	-3.19617e-74
0.5159 	-1.07145e-74
0.5166 	-9.20504e-77
0.5173 	-9.34004e-77
0.518 	-9.43929e-77
0.5187 	-9.53855e-77
0.5194 	-2.12864e-74
0.5201 	-3.75873e-74
0.5208 	-1.47685e-74
0.5215 	-9.98916e-77
0.5222 	-1.00745e-76
0.5229 	-1.01187e-76
0.5236 	-1.0163e-76
0.5243 	-1.83353e-74
0.525 	-4.15417e-74
0.5257 	-1.8336e-74
0.5264 	-1.03121e-76
0.5271 	-1.03345e-76
0.5278 	-1.03242e-76
0.5285 	-1.0314e-76
0.5292 	-1.45411e-74
0.5299 	-3.70002e-74
0.5306 	-2.09574e-74
0.5313 	-1.01875e-76
0.532 	-1.01413e-76
0.5327 	-1.0084e-76
0.5334 	-1.00267e-76
0.5341 	-1.04884e-74
0.5348 	-3.12652e-74
0.5355 	-2.23595e-74
0.5362 	-1.58085e-75
0.5369 	-9.56768e-77
0.5376 	-9.47514e-77
0.5383 	-9.38259e-77
0.539 	-6.68082e-75
0.5397 	-2.51259e-74
0.5404 	-2.24894e-74
0.5411 	-4.04155e-75
0.5418 	-8.71524e-77
0.5425 	-8.60077e-77
0.5432 	-8.4863e-77
0.5439 	-3.46306e-75
0.5446 	-1.9232e-74
0.5453 	-2.14833e-74
0.546 	-5.71123e-75
0.5467 	-7.70617e-77
0.5474 	-7.57157e-77
0.5481 	-7.44783e-77
0.5488 	-1.00353e-75
0.5495 	-1.40258e-74
0.5502 	-1.96058e-74
0.5509 	-6.58023e-75
0.5516 	-6.63756e-77
0.5523 	-6.48858e-77
0.553 	-6.36591e-77
0.5537 	-6.24323e-77
0.5544 	-9.73749e-75
0.5551 	-1.71794e-74
0.5558 	-6.75685e-75
0.5565 	-5.58636e-77
0.5572 	-5.42927e-77
0.5579 	-5.31474e-77
0.5586 	-5.20021e-77
0.5593 	-6.41469e-75
0.56 	-1.45129e-74
0.5607 	-6.41171e-75
0.5614 	-4.60379e-77
0.5621 	-4.44486e-77
0.5628 	-4.34265e-77
0.5635 	-4.24044e-77
0.5642 	-3.97952e-75
0.5649 	-1.01045e-74
0.5656 	-5.72724e-75
0.5663 	-3.72243e-77
0.567 	-3.56837e-77
0.5677 	-3.48042e-77
0.5684 	-3.39247e-77
0.5691 	-2.28932e-75
0.5698 	-6.80096e-75
0.5705 	-4.86578e-75
0.5712 	-3.51873e-76
0.5719 	-2.81205e-77
0.5726 	-2.73845e-77
0.5733 	-2.66484e-77
0.574 	-1.18223e-75
0.5747 	-4.41917e-75
0.5754 	-3.95567e-75
0.5761 	-7.16827e-76
0.5768 	-2.17326e-77
0.5775 	-2.113e-77
0.5782 	-2.05274e-77
0.5789 	-5.04727e-76
0.5796 	-2.76651e-75
0.5803 	-3.08895e-75
0.581 	-8.25605e-76
0.5817 	-1.65191e-77
0.5824 	-1.59408e-77
0.5831 	-1.54576e-77
0.5838 	-1.24967e-76
0.5845 	-1.66435e-75
0.5852 	-2.32372e-75
0.5859 	-7.8308e-76
0.5866 	-1.22648e-77
0.5873 	-1.17117e-77
0.588 	-1.13336e-77
0.5887 	-1.09554e-77
0.5894 	-9.58942e-76
0.5901 	-1.68804e-75
0.5908 	-6.66118e-76
0.5915 	-8.87412e-78
0.5922 	-8.35665e-78
0.5929 	-8.06958e-78
0.5936 	-7.7825e-78
0.5943 	-5.26408e-76
0.595 	-1.18655e-75
0.5957 	-5.25663e-76
0.5964 	-6.25189e-78
0.5971 	-5.78798e-78
0.5978 	-5.57728e-78
0.5985 	-5.36659e-78
0.5992 	-2.72972e-76
0.5999 	-6.89362e-76
0.6006 	-3.91476e-76
0.6013 	-4.28912e-78
0.602 	-3.8945e-78
0.6027 	-3.74505e-78
0.6034 	-3.59561e-78
0.6041 	-1.31687e-76
0.6048 	-3.88019e-76
0.6055 	-2.77891e-76
0.6062 	-2.11781e-77
0.6069 	-2.54863e-78
0.6076 	-2.44606e-78
0.6083 	-2.34348e-78
0.609 	-5.73079e-77
0.6097 	-2.11392e-76
0.6104 	-1.89233e-76
0.6111 	-3.48898e-77
0.6118 	-1.62395e-78
0.6125 	-1.55571e-78
0.6132 	-1.48747e-78
0.6139 	-2.08239e-77
0.6146 	-1.1131e-76
0.6153 	-1.24164e-76
0.616 	-3.35077e-77
0.6167 	-1.02551e-78
0.6174 	-9.64418e-79
0.6181 	-9.20353e-79
0.6188 	-4.58941e-78
0.6195 	-5.65282e-77
0.6202 	-7.87566e-77
0.6209 	-2.67095e-77
0.6216 	-6.33147e-79
0.6223 	-5.83233e-79
0.623 	-5.55576e-79
0.6237 	-5.2792e-79
0.6244 	-2.75983e-77
0.6251 	-4.84136e-77
0.6258 	-1.91915e-77
0.6265 	-3.82327e-79
0.6272 	-3.44341e-79
0.6279 	-3.27451e-79
0.6286 	-3.10562e-79
0.6293 	-1.28885e-77
0.63 	-2.89014e-77
0.6307 	-1.28479e-77
0.6314 	-2.25903e-79
0.6321 	-1.98613e-79
0.6328 	-1.88567e-79
0.6335 	-1.78521e-79
0.6342 	-5.70995e-78
0.6349 	-1.432e-77
0.6356 	-8.14951e-78
0.6363 	-1.30662e-79
0.637 	-1.1199e-79
0.6377 	-1.06165e-79
0.6384 	-1.00339e-79
0.6391 	-2.36478e-78
0.6398 	-6.89946e-78
0.6405 	-4.94626e-78
0.6412 	-3.97908e-79
0.6419 	-6.17688e-80
0.6426 	-5.84728e-80
0.6433 	-5.51769e-80
0.644 	-8.89001e-79
0.6447 	-3.22964e-78
0.6454 	-2.89089e-78
0.6461 	-5.42616e-79
0.6468 	-3.33555e-80
0.6475 	-3.15235e-80
0.6482 	-2.97025e-80
0.6489 	-2.82126e-79
0.6496 	-1.46678e-78
0.6503 	-1.63422e-78
0.651 	-4.454e-79
0.6517 	-1.80987e-80
0.6524 	-1.66439e-80
0.6531 	-1.56607e-80
0.6538 	-5.67635e-80
0.6545 	-6.44978e-79
0.6552 	-8.96433e-79
0.6559 	-3.05992e-79
0.6566 	-9.63491e-81
0.6573 	-8.61055e-81
0.658 	-8.09146e-81
0.6587 	-7.57237e-81
0.6594 	-2.73729e-79
0.6601 	-4.78326e-79
0.6608 	-1.90494e-79
0.6615 	-5.03367e-81
0.6622 	-4.36688e-81
0.6629 	-4.09871e-81
0.6636 	-3.83055e-81
0.6643 	-1.11567e-79
0.665 	-2.48759e-79
0.6657 	-1.10973e-79
0.6664 	-2.5815e-81
0.6671 	-2.17208e-81
0.6678 	-2.03644e-81
0.6685 	-1.90081e-81
0.6692 	-4.3318e-80
0.6699 	-1.0782e-79
0.6706 	-6.14925e-80
0.6713 	-1.29998e-81
0.672 	-1.0601e-81
0.6727 	-9.92905e-82
0.6734 	-9.25706e-82
0.6741 	-1.57955e-80
0.6748 	-4.56023e-80
0.6755 	-3.2724e-80
0.6762 	-2.77162e-81
0.6769 	-5.07954e-82
0.6776 	-4.75326e-82
0.6783 	-4.42697e-82
0.679 	-5.25924e-81
0.6797 	-1.88043e-80
0.6804 	-1.68293e-80
0.6811 	-3.21435e-81
0.6818 	-2.39304e-82
0.6825 	-2.23581e-82
0.6832 	-2.08046e-82
0.6839 	-1.49377e-81
0.6846 	-7.55079e-81
0.6853 	-8.40197e-81
0.686 	-2.31201e-81
0.6867 	-1.14714e-82
0.6874 	-1.03445e-82
0.6881 	-9.6189e-83
0.6888 	-2.80026e-82
0.6895 	-2.94806e-81
0.6902 	-4.08715e-81
0.6909 	-1.40389e-81
0.6916 	-5.41929e-83
0.6923 	-4.71629e-83
0.693 	-4.38353e-83
0.6937 	-4.05077e-83
0.6944 	-1.11704e-81
0.6951 	-1.94433e-81
0.6958 	-7.77822e-82
0.6965 	-2.61083e-83
0.6972 	-2.33253e-83
0.6979 	-2.22877e-83
0.6986 	-2.125e-83
0.6993 	-5.71609e-82
0.7 	-1.27235e-81
