0 	1
0.0007 	1
0.0014 	1
0.0021 	1
0.0028 	1
0.0035 	1
0.0042 	1
0.0049 	1
0.0056 	1
0.0063 	1
0.007 	1
0.0077 	1
0.0084 	1
0.0091 	1
0.0098 	1
0.0105 	1
0.0112 	1
0.0119 	1
0.0126 	1
0.0133 	1
0.014 	1
0.0147 	1
0.0154 	1
0.0161 	1
0.0168 	1
0.0175 	1
0.0182 	1
0.0189 	1
0.0196 	1
0.0203 	1
0.021 	1
0.0217 	1
0.0224 	1
0.0231 	1
0.0238 	1
0.0245 	1
0.0252 	1
0.0259 	1
0.0266 	1
0.0273 	1
0.028 	1
0.0287 	1
0.0294 	1
0.0301 	1
0.0308 	1
0.0315 	1
0.0322 	1
0.0329 	1
0.0336 	1
0.0343 	1
0.035 	1
0.0357 	1
0.0364 	1
0.0371 	1
0.0378 	1
0.0385 	1
0.0392 	1
0.0399 	1
0.0406 	1
0.0413 	1
0.042 	1
0.0427 	1
0.0434 	1
0.0441 	1
0.0448 	1
0.0455 	1
0.0462 	1
0.0469 	1
0.0476 	1
0.0483 	1
0.049 	1
0.0497 	1
0.0504 	1
0.0511 	1
0.0518 	1
0.0525 	1
0.0532 	1
0.0539 	1
0.0546 	1
0.0553 	1
0.056 	1
0.0567 	1
0.0574 	1
0.0581 	1
0.0588 	1
0.0595 	1
0.0602 	1
0.0609 	1
0.0616 	1
0.0623 	1
0.063 	1
0.0637 	1
0.0644 	1
0.0651 	1
0.0658 	1
0.0665 	1
0.0672 	1
0.0679 	1
0.0686 	1
0.0693 	1
0.07 	1
0.0707 	1
0.0714 	1
0.0721 	1
0.0728 	1
0.0735 	1
0.0742 	1
0.0749 	1
0.0756 	1
0.0763 	1
0.077 	1
0.0777 	1
0.0784 	1
0.0791 	1
0.0798 	1
0.0805 	1
0.0812 	1
0.0819 	1
0.0826 	1
0.0833 	1
0.084 	1
0.0847 	1
0.0854 	1
0.0861 	1
0.0868 	1
0.0875 	1
0.0882 	1
0.0889 	1
0.0896 	1
0.0903 	1
0.091 	1
0.0917 	1
0.0924 	1
0.0931 	1
0.0938 	1
0.0945 	1
0.0952 	1
0.0959 	1
0.0966 	1
0.0973 	1
0.098 	1
0.0987 	1
0.0994 	1
0.1001 	1
0.1008 	1
0.1015 	1
0.1022 	1
0.1029 	1
0.1036 	1
0.1043 	1
0.105 	1
0.1057 	1
0.1064 	1
0.1071 	1
0.1078 	1
0.1085 	1
0.1092 	1
0.1099 	1
0.1106 	1
0.1113 	1
0.112 	1
0.1127 	1
0.1134 	1
0.1141 	1
0.1148 	1
0.1155 	1
0.1162 	1
0.1169 	1
0.1176 	1
0.1183 	1
0.119 	1
0.1197 	1
0.1204 	1
0.1211 	1
0.1218 	1
0.1225 	1
0.1232 	1
0.1239 	1
0.1246 	1
0.1253 	1
0.126 	1
0.1267 	1
0.1274 	1
0.1281 	1
0.1288 	1
0.1295 	1
0.1302 	1
0.1309 	1
0.1316 	1
0.1323 	1
0.133 	1
0.1337 	1
0.1344 	1
0.1351 	1
0.1358 	1
0.1365 	1
0.1372 	1
0.1379 	1
0.1386 	1
0.1393 	1
0.14 	1
0.1407 	1
0.1414 	1
0.1421 	1
0.1428 	1
0.1435 	1
0.1442 	1
0.1449 	1
0.1456 	1
0.1463 	1
0.147 	1
0.1477 	1
0.1484 	1
0.1491 	1
0.1498 	1
0.1505 	1
0.1512 	1
0.1519 	1
0.1526 	1
0.1533 	1
0.154 	1
0.1547 	1
0.1554 	1
0.1561 	1
0.1568 	1
0.1575 	1
0.1582 	1
0.1589 	1
0.1596 	1
0.1603 	1
0.161 	1
0.1617 	1
0.1624 	1
0.1631 	1
0.1638 	1
0.1645 	1
0.1652 	1
0.1659 	1
0.1666 	1
0.1673 	1
0.168 	1
0.1687 	1
0.1694 	1
0.1701 	1
0.1708 	1
0.1715 	1
0.1722 	1
0.1729 	1
0.1736 	1
0.1743 	1
0.175 	1
0.1757 	1
0.1764 	1
0.1771 	1
0.1778 	1
0.1785 	1
0.1792 	1
0.1799 	1
0.1806 	1
0.1813 	1
0.182 	1
0.1827 	1
0.1834 	1
0.1841 	1
0.1848 	1
0.1855 	1
0.1862 	1
0.1869 	1
0.1876 	1
0.1883 	1
0.189 	1
0.1897 	1
0.1904 	1
0.1911 	1
0.1918 	1
0.1925 	1
0.1932 	1
0.1939 	1
0.1946 	1
0.1953 	1
0.196 	1
0.1967 	1
0.1974 	1
0.1981 	1
0.1988 	1
0.1995 	1
0.2002 	1
0.2009 	1
0.2016 	1
0.2023 	1
0.203 	1
0.2037 	1
0.2044 	1
0.2051 	1
0.2058 	1
0.2065 	1
0.2072 	1
0.2079 	1
0.2086 	1
0.2093 	1
0.21 	1
0.2107 	1
0.2114 	1
0.2121 	1
0.2128 	1
0.2135 	1
0.2142 	1
0.2149 	1
0.2156 	1
0.2163 	1
0.217 	1
0.2177 	1
0.2184 	1
0.2191 	1
0.2198 	1
0.2205 	1
0.2212 	1
0.2219 	1
0.2226 	1
0.2233 	1
0.224 	1
0.2247 	1
0.2254 	1
0.2261 	1
0.2268 	1
0.2275 	1
0.2282 	1
0.2289 	1
0.2296 	1
0.2303 	1
0.231 	0.999995
0.2317 	0.999977
0.2324 	0.999959
0.2331 	0.999941
0.2338 	0.999923
0.2345 	0.999902
0.2352 	0.999883
0.2359 	0.999723
0.2366 	0.998273
0.2373 	0.996823
0.238 	0.995373
0.2387 	0.993924
0.2394 	0.992279
0.2401 	0.990317
0.2408 	0.988902
0.2415 	0.969493
0.2422 	0.949397
0.2429 	0.929301
0.2436 	0.909205
0.2443 	0.887137
0.245 	0.85606
0.2457 	0.828628
0.2464 	0.774619
0.2471 	0.714797
0.2478 	0.654976
0.2485 	0.595154
0.2492 	0.534401
0.2499 	0.449027
0.2506 	0.363474
0.2513 	0.302307
0.252 	0.25274
0.2527 	0.203173
0.2534 	0.153605
0.2541 	0.104038
0.2548 	0.0800996
0.2555 	0.0566944
0.2562 	0.040684
0.2569 	0.0319699
0.2576 	0.0232556
0.2583 	0.0145414
0.259 	0.00582718
0.2597 	0.00314571
0.2604 	0.002293
0.2611 	0.00156887
0.2618 	0.00125095
0.2625 	0.000933017
0.2632 	0.000615087
0.2639 	0.000297156
0.2646 	0.000152199
0.2653 	0.000114356
0.266 	7.7435e-05
0.2667 	6.22886e-05
0.2674 	4.71415e-05
0.2681 	3.19944e-05
0.2688 	1.68473e-05
0.2695 	7.94589e-06
0.2702 	6.08661e-06
0.2709 	3.97365e-06
0.2716 	3.2057e-06
0.2723 	2.43771e-06
0.273 	1.66972e-06
0.2737 	9.01733e-07
0.2744 	3.56276e-07
0.2751 	2.7708e-07
0.2758 	1.73691e-07
0.2765 	1.37688e-07
0.2772 	1.04164e-07
0.2779 	7.06394e-08
0.2786 	3.71152e-08
0.2793 	9.22416e-09
0.28 	7.316e-09
0.2807 	4.57228e-09
0.2814 	3.38903e-09
0.2821 	2.54464e-09
0.2828 	1.70025e-09
0.2835 	8.55856e-10
0.2842 	4.08755e-11
0.2849 	3.29031e-11
0.2856 	2.13009e-11
0.2863 	1.49172e-11
0.287 	1.1293e-11
0.2877 	7.66883e-12
0.2884 	4.04463e-12
0.2891 	4.20433e-13
0.2898 	2.45645e-14
0.2905 	1.67576e-14
0.2912 	1.13066e-14
0.2919 	8.64827e-15
0.2926 	5.99076e-15
0.2933 	3.33326e-15
0.294 	6.75747e-16
0.2947 	7.81638e-18
0.2954 	5.55221e-18
0.2961 	3.64306e-18
0.2968 	2.81452e-18
0.2975 	1.98669e-18
0.2982 	1.15885e-18
0.2989 	3.31014e-19
0.2996 	4.4009e-21
0.3003 	3.22735e-21
0.301 	2.05903e-21
0.3017 	1.60497e-21
0.3024 	1.15131e-21
0.3031 	6.97644e-22
0.3038 	2.4398e-22
0.3045 	4.23328e-25
0.3052 	3.2062e-25
0.3059 	1.94721e-25
0.3066 	1.53108e-25
0.3073 	1.11509e-25
0.308 	6.99091e-26
0.3087 	2.83096e-26
0.3094 	3.12415e-29
0.3101 	2.44701e-29
0.3108 	1.44517e-29
0.3115 	1.1265e-29
0.3122 	8.3187e-30
0.3129 	5.37242e-30
0.3136 	2.42614e-30
0.3143 	2.23952e-33
0.315 	1.81694e-33
0.3157 	1.10016e-33
0.3164 	8.0647e-34
0.3171 	6.03143e-34
0.3178 	3.99817e-34
0.3185 	1.96491e-34
0.3192 	1.56675e-37
0.3199 	1.28717e-37
0.3206 	8.1745e-38
0.3213 	5.64334e-38
0.322 	4.27002e-38
0.3227 	2.89671e-38
0.3234 	1.52339e-38
0.3241 	1.50077e-39
0.3248 	8.76742e-42
0.3255 	5.84534e-42
0.3262 	3.80714e-42
0.3269 	2.91243e-42
0.3276 	2.01689e-42
0.3283 	1.12136e-42
0.329 	2.2582e-43
0.3297 	5.67246e-46
0.3304 	3.97187e-46
0.3311 	2.44618e-46
0.3318 	1.89114e-46
0.3325 	1.33411e-46
0.3332 	7.77073e-47
0.3339 	2.20041e-47
0.3346 	3.4527e-50
0.3353 	2.53818e-50
0.336 	1.48253e-50
0.3367 	1.15768e-50
0.3374 	8.30454e-51
0.3381 	5.03229e-51
0.3388 	1.76005e-51
0.3395 	1.96916e-54
0.3402 	1.51806e-54
0.3409 	8.43856e-55
0.3416 	6.65269e-55
0.3423 	4.84525e-55
0.343 	3.0378e-55
0.3437 	1.23035e-55
0.3444 	1.0518e-58
0.3451 	8.48883e-59
0.3458 	4.60729e-59
0.3465 	3.58461e-59
0.3472 	2.6471e-59
0.3479 	1.70959e-59
0.3486 	7.72081e-60
0.3493 	5.26972e-63
0.35 	4.44476e-63
0.3507 	2.52133e-63
0.3514 	1.81295e-63
0.3521 	1.35587e-63
0.3528 	8.98788e-64
0.3535 	4.41708e-64
0.3542 	2.48439e-67
0.3549 	2.11155e-67
0.3556 	1.28899e-67
0.3563 	8.63137e-68
0.357 	6.53087e-68
0.3577 	4.43036e-68
0.3584 	2.32985e-68
0.3591 	2.29347e-69
0.3598 	9.47089e-72
0.3605 	6.18704e-72
0.3612 	3.88048e-72
0.3619 	2.96955e-72
0.3626 	2.05641e-72
0.3633 	1.14326e-72
0.364 	2.3011e-73
0.3647 	4.02716e-76
0.3654 	2.80235e-76
0.3661 	1.65394e-76
0.3668 	1.27982e-76
0.3675 	9.02829e-77
0.3682 	5.25833e-77
0.3689 	1.48838e-77
0.3696 	1.62062e-80
0.3703 	1.192e-80
0.371 	6.71384e-81
0.3717 	5.24919e-81
0.3724 	3.76505e-81
0.3731 	2.28091e-81
0.3738 	7.96765e-82
0.3745 	-6.07152e-83
0.3752 	-1.16635e-82
0.3759 	-7.48788e-85
0.3766 	-3.78103e-85
0.3773 	-4.33891e-85
0.378 	-4.89679e-85
0.3787 	-5.45467e-85
0.3794 	-2.0439e-83
0.3801 	-6.47519e-83
0.3808 	-2.71355e-84
0.3815 	-1.98602e-85
0.3822 	-1.9843e-85
0.3829 	-1.98259e-85
0.3836 	-1.98087e-85
0.3843 	-3.88024e-84
0.385 	-2.46535e-83
0.3857 	-3.88017e-84
0.3864 	-5.10563e-86
0.3871 	-5.0998e-86
0.3878 	-5.09398e-86
0.3885 	-5.08815e-86
0.3892 	-2.40768e-85
0.3899 	-5.75006e-84
0.3906 	-1.81486e-84
0.3913 	-1.09347e-86
0.392 	-1.09219e-86
0.3927 	-1.09091e-86
0.3934 	-1.08963e-86
0.3941 	-1.08835e-86
0.3948 	-1.10972e-84
0.3955 	-5.81599e-85
0.3962 	-3.06882e-87
0.3969 	-2.0295e-87
0.3976 	-2.02719e-87
0.3983 	-2.02488e-87
0.399 	-2.02257e-87
0.3997 	-1.82775e-85
0.4004 	-1.48299e-85
0.4011 	-9.28354e-88
0.4018 	-3.34709e-88
0.4025 	-3.34347e-88
0.4032 	-3.33984e-88
0.4039 	-3.33622e-88
0.4046 	-2.60459e-86
0.4053 	-3.21058e-86
0.406 	-2.1608e-88
0.4067 	-4.95525e-89
0.4074 	-4.95018e-89
0.4081 	-4.94512e-89
0.4088 	-4.94005e-89
0.4095 	-3.17461e-87
0.4102 	-6.06478e-87
0.4109 	-4.17488e-89
0.4116 	-6.68279e-90
0.4123 	-6.6764e-90
0.413 	-6.67002e-90
0.4137 	-6.66363e-90
0.4144 	-3.20487e-88
0.4151 	-1.01947e-87
0.4158 	-4.0924e-89
0.4165 	-8.32209e-91
0.4172 	-8.31471e-91
0.4179 	-8.30734e-91
0.4186 	-8.29996e-91
0.4193 	-2.40501e-89
0.42 	-1.54524e-88
0.4207 	-2.40539e-89
0.4214 	-9.558e-92
0.4221 	-9.55009e-92
0.4228 	-9.54217e-92
0.4235 	-9.53426e-92
0.4242 	-6.65694e-91
0.4249 	-1.6846e-89
0.4256 	-5.2891e-90
0.4263 	-1.01205e-92
0.427 	-1.01127e-92
0.4277 	-1.01048e-92
0.4284 	-1.00969e-92
0.4291 	-1.00891e-92
0.4298 	-1.67498e-90
0.4305 	-8.75602e-91
0.4312 	-2.06284e-93
0.4319 	-9.93491e-94
0.4326 	-9.92767e-94
0.4333 	-9.92043e-94
0.434 	-9.91319e-94
0.4347 	-1.50899e-91
0.4354 	-1.22344e-91
0.4361 	-4.08651e-94
0.4368 	-9.12791e-95
0.4375 	-9.1217e-95
0.4382 	-9.11549e-95
0.4389 	-9.10928e-95
0.4396 	-1.22342e-92
0.4403 	-1.50917e-92
0.441 	-5.68072e-95
0.4417 	-7.91496e-96
0.4424 	-7.90996e-96
0.4431 	-7.90495e-96
0.4438 	-7.89995e-96
0.4445 	-8.80637e-94
0.4452 	-1.68595e-93
0.4459 	-6.61752e-96
0.4466 	-6.49181e-97
0.4473 	-6.488e-97
0.448 	-6.48419e-97
0.4487 	-6.48037e-97
0.4494 	-5.42984e-95
0.4501 	-1.73387e-94
0.4508 	-6.67268e-96
0.4515 	-5.01808e-98
0.4522 	-5.01532e-98
0.4529 	-5.01256e-98
0.4536 	-5.0098e-98
0.4543 	-2.55754e-96
0.455 	-1.65554e-95
0.4557 	-2.55824e-96
0.4564 	-3.64793e-99
0.4571 	-3.64605e-99
0.4578 	-3.64416e-99
0.4585 	-3.64228e-99
0.4592 	-4.41638e-98
0.4599 	-1.15516e-96
0.4606 	-3.61641e-97
0.4613 	-2.49813e-100
0.462 	-2.49691e-100
0.4627 	-2.4957e-100
0.4634 	-2.49449e-100
0.4641 	-2.49328e-100
0.4648 	-7.46966e-98
0.4655 	-3.9004e-98
0.4662 	-4.36406e-101
0.4669 	-1.61678e-101
0.4676 	-1.61604e-101
0.4683 	-1.61531e-101
0.469 	-1.61457e-101
0.4697 	-4.45054e-99
0.4704 	-3.60743e-99
0.4711 	-6.35094e-102
0.4718 	-9.94587e-103
0.4725 	-9.94164e-103
0.4732 	-9.93741e-103
0.4739 	-9.93317e-103
0.4746 	-2.42353e-100
0.4753 	-2.99022e-100
0.476 	-6.09417e-103
0.4767 	-5.83485e-104
0.4774 	-5.83254e-104
0.4781 	-5.83022e-104
0.4788 	-5.82791e-104
0.4795 	-1.18702e-101
0.4802 	-2.27354e-101
0.4809 	-4.86769e-104
0.4816 	-3.26914e-105
0.4823 	-3.26793e-105
0.483 	-3.26672e-105
0.4837 	-3.26551e-105
0.4844 	-5.02864e-103
0.4851 	-1.60662e-102
0.4858 	-6.14836e-104
0.4865 	-1.74897e-106
0.4872 	-1.74837e-106
0.4879 	-1.74777e-106
0.4886 	-1.74716e-106
0.4893 	-1.64316e-104
0.49 	-1.06394e-103
0.4907 	-1.64378e-104
0.4914 	-8.91928e-108
0.4921 	-8.91642e-108
0.4928 	-8.91356e-108
0.4935 	-8.91071e-108
0.4942 	-1.99621e-106
0.4949 	-5.20407e-105
0.4956 	-1.62977e-105
0.4963 	-4.32952e-109
0.497 	-4.32823e-109
0.4977 	-4.32693e-109
0.4984 	-4.32563e-109
0.4991 	-4.32434e-109
0.4998 	-2.38549e-106
0.5005 	-1.24606e-106
0.5012 	-6.87275e-110
0.5019 	-1.9992e-110
0.5026 	-1.99864e-110
0.5033 	-1.99808e-110
0.504 	-1.99752e-110
0.5047 	-1.01751e-107
0.5054 	-8.24888e-108
0.5061 	-7.6508e-111
0.5068 	-8.79214e-112
0.5075 	-8.78984e-112
0.5082 	-8.78754e-112
0.5089 	-8.78523e-112
0.5096 	-3.99509e-109
0.5103 	-4.92832e-109
0.511 	-5.34507e-112
0.5117 	-3.68629e-113
0.5124 	-3.68539e-113
0.5131 	-3.68449e-113
0.5138 	-3.68359e-113
0.5145 	-1.41776e-110
0.5152 	-2.71336e-110
0.5159 	-3.07591e-113
0.5166 	-1.47607e-114
0.5173 	-1.47573e-114
0.518 	-1.47539e-114
0.5187 	-1.47505e-114
0.5194 	-4.36291e-112
0.5201 	-1.39128e-111
0.5208 	-5.44254e-113
0.5215 	-5.65979e-116
0.5222 	-5.65858e-116
0.5229 	-5.65738e-116
0.5236 	-5.65617e-116
0.5243 	-1.03889e-113
0.525 	-6.69512e-113
0.5257 	-1.03936e-113
0.5264 	-2.07833e-117
0.5271 	-2.07792e-117
0.5278 	-2.07751e-117
0.5285 	-2.0771e-117
0.5292 	-9.40284e-116
0.5299 	-2.38565e-114
0.5306 	-7.48945e-115
0.5313 	-7.31682e-119
0.532 	-7.31548e-119
0.5327 	-7.31413e-119
0.5334 	-7.31279e-119
0.5341 	-7.31145e-119
0.5348 	-7.99696e-116
0.5355 	-4.18269e-116
0.5362 	-1.0848e-119
0.5369 	-2.47178e-120
0.5376 	-2.47136e-120
0.5383 	-2.47094e-120
0.539 	-2.47052e-120
0.5397 	-2.50795e-117
0.5404 	-2.03407e-117
0.5411 	-9.30907e-121
0.5418 	-8.02554e-122
0.5425 	-8.02427e-122
0.5432 	-8.023e-122
0.5439 	-8.02173e-122
0.5446 	-7.28821e-119
0.5453 	-8.98661e-119
0.546 	-4.86245e-122
0.5467 	-2.50804e-123
0.5474 	-2.50767e-123
0.5481 	-2.5073e-123
0.5488 	-2.50693e-123
0.5495 	-1.9292e-120
0.5502 	-3.68616e-120
0.5509 	-2.09672e-123
0.5516 	-7.56096e-125
0.5523 	-7.55991e-125
0.553 	-7.55887e-125
0.5537 	-7.55782e-125
0.5544 	-4.46688e-122
0.5551 	-1.41932e-121
0.5558 	-5.77905e-123
0.5565 	-2.20457e-126
0.5572 	-2.20429e-126
0.5579 	-2.204e-126
0.5586 	-2.20371e-126
0.5593 	-8.08799e-124
0.56 	-5.16914e-123
0.5607 	-8.09221e-124
0.5614 	-6.22113e-128
0.5621 	-6.22037e-128
0.5628 	-6.2196e-128
0.5635 	-6.21884e-128
0.5642 	-5.78824e-126
0.5649 	-1.40574e-124
0.5656 	-4.43098e-125
0.5663 	-1.70187e-129
0.567 	-1.70167e-129
0.5677 	-1.70148e-129
0.5684 	-1.70128e-129
0.5691 	-1.70108e-129
0.5698 	-3.62641e-126
0.5705 	-1.90062e-126
0.5712 	-2.42324e-130
0.5719 	-4.51959e-131
0.5726 	-4.51909e-131
0.5733 	-4.51859e-131
0.574 	-4.51808e-131
0.5747 	-8.82869e-128
0.5754 	-7.1652e-128
0.5761 	-1.68951e-131
0.5768 	-1.16709e-132
0.5775 	-1.16696e-132
0.5782 	-1.16684e-132
0.5789 	-1.16671e-132
0.5796 	-2.00967e-129
0.5803 	-2.47635e-129
0.581 	-7.07131e-133
0.5817 	-2.93431e-134
0.5824 	-2.93398e-134
0.5831 	-2.93364e-134
0.5838 	-2.9333e-134
0.5845 	-4.20195e-131
0.5852 	-8.0106e-131
0.5859 	-2.46063e-134
0.5866 	-7.19366e-136
0.5873 	-7.1928e-136
0.588 	-7.19194e-136
0.5887 	-7.19108e-136
0.5894 	-7.77135e-133
0.5901 	-2.45745e-132
0.5908 	-1.05307e-133
0.5915 	-1.72352e-137
0.5922 	-1.7233e-137
0.5929 	-1.72309e-137
0.5936 	-1.72287e-137
0.5943 	-1.13865e-134
0.595 	-7.19963e-134
0.5957 	-1.1393e-134
0.5964 	-4.04076e-139
0.5971 	-4.04023e-139
0.5978 	-4.03969e-139
0.5985 	-4.03915e-139
0.5992 	-6.90316e-137
0.5999 	-1.59027e-135
0.6006 	-5.03813e-136
0.6013 	-9.27521e-141
0.602 	-9.27389e-141
0.6027 	-9.27257e-141
0.6034 	-9.27125e-141
0.6041 	-9.26993e-141
0.6048 	-3.3627e-137
0.6055 	-1.76684e-137
0.6062 	-1.29215e-141
0.6069 	-2.08633e-142
0.6076 	-2.08601e-142
0.6083 	-2.08569e-142
0.609 	-2.08537e-142
0.6097 	-6.7724e-139
0.6104 	-5.50065e-139
0.6111 	-7.78048e-143
0.6118 	-4.60379e-144
0.6125 	-4.60303e-144
0.6132 	-4.60226e-144
0.6139 	-4.60149e-144
0.6146 	-1.28724e-140
0.6153 	-1.58493e-140
0.616 	-2.79456e-144
0.6167 	-9.97055e-146
0.6174 	-9.96873e-146
0.6181 	-9.96692e-146
0.6188 	-9.9651e-146
0.6195 	-2.26891e-142
0.6202 	-4.31416e-142
0.6209 	-8.3909e-146
0.6216 	-2.12031e-147
0.6223 	-2.11989e-147
0.623 	-2.11947e-147
0.6237 	-2.11904e-147
0.6244 	-3.56953e-144
0.6251 	-1.12263e-143
0.6258 	-5.08249e-145
0.6265 	-4.4294e-149
0.6272 	-4.42842e-149
0.6279 	-4.42744e-149
0.6286 	-4.42646e-149
0.6293 	-4.50382e-146
0.63 	-2.81417e-145
0.6307 	-4.50642e-146
0.6314 	-9.09354e-151
0.6321 	-9.0913e-151
0.6328 	-9.08906e-151
0.6335 	-9.08682e-151
0.6342 	-2.46196e-148
0.6349 	-5.36835e-147
0.6356 	-1.71015e-147
0.6363 	-1.83542e-152
0.637 	-1.83491e-152
0.6377 	-1.83441e-152
0.6384 	-1.8339e-152
0.6391 	-1.8334e-152
0.6398 	-9.88563e-149
0.6405 	-5.20812e-149
0.6412 	-2.52297e-153
0.6419 	-3.64229e-154
0.6426 	-3.64116e-154
0.6433 	-3.64004e-154
0.644 	-3.63891e-154
0.6447 	-1.74741e-150
0.6454 	-1.42043e-150
0.6461 	-1.35767e-154
0.6468 	-7.11284e-156
0.6475 	-7.11035e-156
0.6482 	-7.10786e-156
0.6489 	-7.10537e-156
0.6496 	-2.9367e-152
0.6503 	-3.61287e-152
0.651 	-4.32727e-156
0.6517 	-1.36706e-157
0.6524 	-1.36648e-157
0.6531 	-1.3659e-157
0.6538 	-1.36531e-157
0.6545 	-4.61006e-154
0.6552 	-8.74232e-154
0.6559 	-1.15411e-157
0.6566 	-2.58795e-159
0.6573 	-2.5865e-159
0.658 	-2.58505e-159
0.6587 	-2.58359e-159
0.6594 	-6.50071e-156
0.6601 	-2.03344e-155
0.6608 	-9.69581e-157
0.6615 	-4.82366e-161
0.6622 	-4.82007e-161
0.6629 	-4.81648e-161
0.6636 	-4.81289e-161
0.6643 	-7.41029e-158
0.665 	-4.57747e-157
0.6657 	-7.41398e-158
0.6664 	-8.85273e-163
0.6671 	-8.8441e-163
0.6678 	-8.83547e-163
0.6685 	-8.82684e-163
0.6692 	-3.79526e-160
0.6699 	-7.87552e-159
0.6706 	-2.52182e-159
0.6713 	-1.59993e-164
0.672 	-1.59793e-164
0.6727 	-1.59593e-164
0.6734 	-1.59393e-164
0.6741 	-1.59193e-164
0.6748 	-1.31189e-160
0.6755 	-6.92832e-161
0.6762 	-2.17034e-165
0.6769 	-2.84292e-166
0.6776 	-2.8385e-166
0.6783 	-2.83408e-166
0.679 	-2.82966e-166
0.6797 	-2.10204e-162
0.6804 	-1.70989e-162
0.6811 	-1.05585e-166
0.6818 	-4.98015e-168
0.6825 	-4.97084e-168
0.6832 	-4.96154e-168
0.6839 	-4.95223e-168
0.6846 	-3.2052e-164
0.6853 	-3.94041e-164
0.686 	-3.0212e-168
0.6867 	-8.58824e-170
0.6874 	-8.56957e-170
0.6881 	-8.5509e-170
0.6888 	-8.53223e-170
0.6895 	-4.56299e-166
0.6902 	-8.63493e-166
0.6909 	-7.22694e-170
0.6916 	-1.45488e-171
0.6923 	-1.45132e-171
0.693 	-1.44777e-171
0.6937 	-1.44421e-171
0.6944 	-5.82053e-168
0.6951 	-1.81362e-167
0.6958 	-8.94922e-169
0.6965 	-2.53741e-175
0.6972 	-1.90979e-175
0.6979 	-1.28217e-175
0.6986 	-6.54543e-176
0.6993 	-1.35255e-176
0.7 	-6.39848e-177
