0 	1
0.0007 	1
0.0014 	1
0.0021 	1
0.0028 	1
0.0035 	1
0.0042 	1
0.0049 	1
0.0056 	1
0.0063 	1
0.007 	1
0.0077 	1
0.0084 	1
0.0091 	1
0.0098 	1
0.0105 	1
0.0112 	1
0.0119 	1
0.0126 	1
0.0133 	1
0.014 	1
0.0147 	1
0.0154 	1
0.0161 	1
0.0168 	1
0.0175 	1
0.0182 	1
0.0189 	1
0.0196 	1
0.0203 	1
0.021 	1
0.0217 	1
0.0224 	1
0.0231 	1
0.0238 	1
0.0245 	1
0.0252 	1
0.0259 	1
0.0266 	1
0.0273 	1
0.028 	1
0.0287 	1
0.0294 	1
0.0301 	1
0.0308 	1
0.0315 	1
0.0322 	1
0.0329 	1
0.0336 	1
0.0343 	1
0.035 	1
0.0357 	1
0.0364 	1
0.0371 	1
0.0378 	1
0.0385 	1
0.0392 	1
0.0399 	1
0.0406 	1
0.0413 	1
0.042 	1
0.0427 	1
0.0434 	1
0.0441 	1
0.0448 	1
0.0455 	1
0.0462 	1
0.0469 	1
0.0476 	1
0.0483 	1
0.049 	1
0.0497 	1
0.0504 	1
0.0511 	1
0.0518 	1
0.0525 	1
0.0532 	1
0.0539 	1
0.0546 	1
0.0553 	1
0.056 	1
0.0567 	1
0.0574 	1
0.0581 	1
0.0588 	1
0.0595 	1
0.0602 	1
0.0609 	1
0.0616 	1
0.0623 	1
0.063 	1
0.0637 	1
0.0644 	1
0.0651 	1
0.0658 	1
0.0665 	1
0.0672 	1
0.0679 	1
0.0686 	1
0.0693 	1
0.07 	1
0.0707 	1
0.0714 	1
0.0721 	1
0.0728 	1
0.0735 	1
0.0742 	1
0.0749 	1
0.0756 	1
0.0763 	1
0.077 	1
0.0777 	1
0.0784 	1
0.0791 	1
0.0798 	1
0.0805 	1
0.0812 	1
0.0819 	1
0.0826 	1
0.0833 	1
0.084 	1
0.0847 	1
0.0854 	1
0.0861 	1
0.0868 	1
0.0875 	1
0.0882 	1
0.0889 	1
0.0896 	1
0.0903 	1
0.091 	1
0.0917 	1
0.0924 	1
0.0931 	1
0.0938 	1
0.0945 	1
0.0952 	1
0.0959 	1
0.0966 	1
0.0973 	1
0.098 	1
0.0987 	1
0.0994 	1
0.1001 	1
0.1008 	1
0.1015 	1
0.1022 	1
0.1029 	1
0.1036 	1
0.1043 	1
0.105 	1
0.1057 	1
0.1064 	1
0.1071 	1
0.1078 	1
0.1085 	1
0.1092 	1
0.1099 	1
0.1106 	1
0.1113 	1
0.112 	1
0.1127 	1
0.1134 	1
0.1141 	1
0.1148 	1
0.1155 	1
0.1162 	1
0.1169 	1
0.1176 	1
0.1183 	1
0.119 	1
0.1197 	1
0.1204 	1
0.1211 	1
0.1218 	1
0.1225 	1
0.1232 	1
0.1239 	1
0.1246 	1
0.1253 	1
0.126 	1
0.1267 	1
0.1274 	1
0.1281 	1
0.1288 	1
0.1295 	1
0.1302 	1
0.1309 	1
0.1316 	1
0.1323 	1
0.133 	1
0.1337 	1
0.1344 	1
0.1351 	1
0.1358 	1
0.1365 	1
0.1372 	1
0.1379 	1
0.1386 	1
0.1393 	1
0.14 	1
0.1407 	1
0.1414 	1
0.1421 	1
0.1428 	1
0.1435 	1
0.1442 	1
0.1449 	1
0.1456 	1
0.1463 	1
0.147 	1
0.1477 	1
0.1484 	1
0.1491 	1
0.1498 	1
0.1505 	1
0.1512 	1
0.1519 	1
0.1526 	1
0.1533 	1
0.154 	1
0.1547 	1
0.1554 	1
0.1561 	1
0.1568 	1
0.1575 	1
0.1582 	1
0.1589 	1
0.1596 	1
0.1603 	1
0.161 	1
0.1617 	1
0.1624 	1
0.1631 	1
0.1638 	1
0.1645 	1
0.1652 	1
0.1659 	1
0.1666 	1
0.1673 	1
0.168 	1
0.1687 	1
0.1694 	1
0.1701 	1
0.1708 	1
0.1715 	1
0.1722 	1
0.1729 	1
0.1736 	1
0.1743 	1
0.175 	1
0.1757 	1
0.1764 	1
0.1771 	1
0.1778 	1
0.1785 	1
0.1792 	1
0.1799 	1
0.1806 	1
0.1813 	1
0.182 	1
0.1827 	1
0.1834 	1
0.1841 	1
0.1848 	1
0.1855 	1
0.1862 	1
0.1869 	1
0.1876 	1
0.1883 	1
0.189 	1
0.1897 	1
0.1904 	1
0.1911 	1
0.1918 	1
0.1925 	1
0.1932 	1
0.1939 	1
0.1946 	1
0.1953 	1
0.196 	1
0.1967 	1
0.1974 	1
0.1981 	1
0.1988 	1
0.1995 	1
0.2002 	1
0.2009 	0.999987
0.2016 	0.999968
0.2023 	0.99995
0.203 	0.999931
0.2037 	0.999913
0.2044 	0.999894
0.2051 	0.999834
0.2058 	0.999153
0.2065 	0.997941
0.2072 	0.99673
0.2079 	0.995519
0.2086 	0.994308
0.2093 	0.993096
0.21 	0.990171
0.2107 	0.981485
0.2114 	0.964377
0.2121 	0.947269
0.2128 	0.930161
0.2135 	0.913053
0.2142 	0.895946
0.2149 	0.867148
0.2156 	0.821751
0.2163 	0.764044
0.217 	0.706338
0.2177 	0.648631
0.2184 	0.590924
0.2191 	0.533217
0.2198 	0.468872
0.2205 	0.391043
0.2212 	0.338664
0.2219 	0.286285
0.2226 	0.233905
0.2233 	0.181526
0.224 	0.129146
0.2247 	0.0835677
0.2254 	0.0698676
0.2261 	0.0587026
0.2268 	0.0476374
0.2275 	0.0365722
0.2282 	0.0255071
0.2289 	0.0144419
0.2296 	0.00360371
0.2303 	0.0031645
0.231 	0.00264667
0.2317 	0.00215438
0.2324 	0.00166209
0.2331 	0.0011698
0.2338 	0.000677505
0.2345 	0.000185214
0.2352 	0.000110599
0.2359 	9.22168e-05
0.2366 	7.57537e-05
0.2373 	5.92912e-05
0.238 	4.28286e-05
0.2387 	2.63661e-05
0.2394 	9.90353e-06
0.2401 	5.01926e-06
0.2408 	4.16583e-06
0.2415 	3.44048e-06
0.2422 	2.71517e-06
0.2429 	1.98987e-06
0.2436 	1.26456e-06
0.2443 	5.39256e-07
0.245 	2.26326e-07
0.2457 	1.87124e-07
0.2464 	1.55464e-07
0.2471 	1.23808e-07
0.2478 	9.21521e-08
0.2485 	6.04963e-08
0.2492 	2.88405e-08
0.2499 	1.07386e-08
0.2506 	8.91165e-09
0.2513 	7.45336e-09
0.252 	5.99554e-09
0.2527 	4.53772e-09
0.2534 	3.0799e-09
0.2541 	1.62207e-09
0.2548 	5.85833e-10
0.2555 	4.90335e-10
0.2562 	4.14452e-10
0.2569 	3.38613e-10
0.2576 	2.62777e-10
0.2583 	1.86942e-10
0.259 	1.11106e-10
0.2597 	4.66489e-11
0.2604 	3.98359e-11
0.2611 	3.43645e-11
0.2618 	2.89387e-11
0.2625 	2.35138e-11
0.2632 	1.80889e-11
0.2639 	1.2664e-11
0.2646 	7.32754e-12
0.2653 	6.37492e-12
0.266 	5.53784e-12
0.2667 	4.74979e-12
0.2674 	3.96201e-12
0.2681 	3.17423e-12
0.2688 	2.38645e-12
0.2695 	1.59868e-12
0.2702 	1.34632e-12
0.2709 	1.17591e-12
0.2716 	1.02254e-12
0.2723 	8.69294e-13
0.273 	7.16044e-13
0.2737 	5.62794e-13
0.2744 	4.09545e-13
0.2751 	3.39433e-13
0.2758 	2.98284e-13
0.2765 	2.62809e-13
0.2772 	2.27391e-13
0.2779 	1.91972e-13
0.2786 	1.56553e-13
0.2793 	1.21134e-13
0.28 	9.97568e-14
0.2807 	8.71723e-14
0.2814 	7.69331e-14
0.2821 	6.67205e-14
0.2828 	5.65078e-14
0.2835 	4.62951e-14
0.2842 	3.60825e-14
0.2849 	2.88409e-14
0.2856 	2.49077e-14
0.2863 	2.18166e-14
0.287 	1.87363e-14
0.2877 	1.56559e-14
0.2884 	1.25756e-14
0.2891 	9.49527e-15
0.2898 	7.0852e-15
0.2905 	6.0669e-15
0.2912 	5.27559e-15
0.2919 	4.48719e-15
0.2926 	3.69901e-15
0.2933 	2.91084e-15
0.294 	2.12266e-15
0.2947 	1.43375e-15
0.2954 	1.22733e-15
0.2961 	1.06298e-15
0.2968 	9.00392e-16
0.2975 	7.37945e-16
0.2982 	5.75498e-16
0.2989 	4.13051e-16
0.2996 	2.52947e-16
0.3003 	2.18917e-16
0.301 	1.88214e-16
0.3017 	1.59521e-16
0.3024 	1.30869e-16
0.3031 	1.02216e-16
0.3038 	7.35627e-17
0.3045 	4.49098e-17
0.3052 	3.66612e-17
0.3059 	3.13685e-17
0.3066 	2.66634e-17
0.3073 	2.19661e-17
0.308 	1.72688e-17
0.3087 	1.25715e-17
0.3094 	7.87424e-18
0.3101 	6.00732e-18
0.3108 	5.12215e-18
0.3115 	4.36977e-18
0.3122 	3.61859e-18
0.3129 	2.86742e-18
0.3136 	2.11624e-18
0.3143 	1.36507e-18
0.315 	9.77646e-19
0.3157 	8.30851e-19
0.3164 	7.11587e-19
0.3171 	5.92454e-19
0.3178 	4.73322e-19
0.3185 	3.5419e-19
0.3192 	2.35058e-19
0.3199 	1.58596e-19
0.3206 	1.34461e-19
0.3213 	1.15455e-19
0.322 	9.64567e-20
0.3227 	7.74584e-20
0.3234 	5.846e-20
0.3241 	3.94617e-20
0.3248 	2.50322e-20
0.3255 	2.10469e-20
0.3262 	1.80607e-20
0.3269 	1.50743e-20
0.3276 	1.2088e-20
0.3283 	9.1016e-21
0.329 	6.11523e-21
0.3297 	3.51624e-21
0.3304 	2.93408e-21
0.3311 	2.50932e-21
0.3318 	2.0875e-21
0.3325 	1.66567e-21
0.3332 	1.24385e-21
0.3339 	8.22022e-22
0.3346 	4.05852e-22
0.3353 	3.39903e-22
0.336 	2.87525e-22
0.3367 	2.38637e-22
0.3374 	1.89749e-22
0.3381 	1.4086e-22
0.3388 	9.19719e-23
0.3395 	4.30835e-23
0.3402 	3.16315e-23
0.3409 	2.64865e-23
0.3416 	2.19665e-23
0.3423 	1.74463e-23
0.343 	1.2926e-23
0.3437 	8.4058e-24
0.3444 	3.88556e-24
0.3451 	2.34799e-24
0.3458 	1.94706e-24
0.3465 	1.61529e-24
0.3472 	1.28343e-24
0.3479 	9.51566e-25
0.3486 	6.19704e-25
0.3493 	2.87841e-25
0.35 	1.36491e-25
0.3507 	1.12122e-25
0.3514 	9.31026e-26
0.3521 	7.40691e-26
0.3528 	5.50355e-26
0.3535 	3.60019e-26
0.3542 	1.69683e-26
0.3549 	5.91627e-27
0.3556 	4.83822e-27
0.3563 	4.02306e-27
0.357 	3.20655e-27
0.3577 	2.39003e-27
0.3584 	1.57352e-27
0.3591 	7.57015e-28
0.3598 	1.76546e-28
0.3605 	1.43901e-28
0.3612 	1.19889e-28
0.3619 	9.58086e-29
0.3626 	7.17232e-29
0.3633 	4.76378e-29
0.364 	2.35524e-29
0.3647 	3.16604e-30
0.3654 	2.57857e-30
0.3661 	2.15141e-30
0.3668 	1.72556e-30
0.3675 	1.29925e-30
0.3682 	8.72944e-31
0.3689 	4.46638e-31
0.3696 	2.61999e-32
0.3703 	2.15428e-32
0.371 	1.78337e-32
0.3717 	1.43749e-32
0.3724 	1.09078e-32
0.3731 	7.44071e-33
0.3738 	3.97362e-33
0.3745 	5.06534e-34
0.3752 	4.92154e-35
0.3759 	4.02987e-35
0.3766 	3.27083e-35
0.3773 	2.50774e-35
0.378 	1.74466e-35
0.3787 	9.81569e-36
0.3794 	2.18481e-36
0.3801 	9.16745e-38
0.3808 	7.03318e-38
0.3815 	5.90544e-38
0.3822 	4.76417e-38
0.3829 	3.6229e-38
0.3836 	2.48163e-38
0.3843 	1.34036e-38
0.385 	7.74215e-39
0.3857 	5.42024e-39
0.3864 	4.55992e-39
0.3871 	3.68513e-39
0.3878 	2.81034e-39
0.3885 	1.93555e-39
0.3892 	1.06075e-39
0.3899 	5.24923e-40
0.3906 	3.57893e-40
0.3913 	2.99932e-40
0.392 	2.40792e-40
0.3927 	1.81653e-40
0.3934 	1.22513e-40
0.3941 	6.33737e-41
0.3948 	2.08158e-41
0.3955 	1.37152e-41
0.3962 	1.15257e-41
0.3969 	9.28882e-42
0.3976 	7.04834e-42
0.3983 	4.80787e-42
0.399 	2.5674e-42
0.3997 	6.61166e-43
0.4004 	4.25165e-43
0.4011 	3.54608e-43
0.4018 	2.86203e-43
0.4025 	2.17442e-43
0.4032 	1.4868e-43
0.4039 	7.99194e-44
0.4046 	1.19841e-44
0.4053 	8.43375e-45
0.406 	6.27078e-45
0.4067 	5.07738e-45
0.4074 	3.87286e-45
0.4081 	2.66834e-45
0.4088 	1.46382e-45
0.4095 	2.59305e-46
0.4102 	8.52684e-47
0.4109 	5.2801e-47
0.4116 	4.2948e-47
0.4123 	3.29539e-47
0.413 	2.29598e-47
0.4137 	1.29657e-47
0.4144 	2.97165e-48
0.4151 	2.85088e-49
0.4158 	1.20858e-49
0.4165 	9.89409e-50
0.4172 	7.6556e-50
0.4179 	5.41712e-50
0.4186 	3.17863e-50
0.4193 	9.40148e-51
0.42 	1.90594e-52
0.4207 	3.25717e-53
0.4214 	2.68638e-53
0.4221 	2.09735e-53
0.4228 	1.50831e-53
0.4235 	9.19275e-54
0.4242 	3.30239e-54
0.4249 	1.20962e-56
0.4256 	9.80274e-58
0.4263 	8.1414e-58
0.427 	6.41089e-58
0.4277 	4.68038e-58
0.4284 	2.94987e-58
0.4291 	1.21936e-58
0.4298 	4.99136e-61
0.4305 	1.13304e-61
0.4312 	9.42613e-62
0.4319 	7.48457e-62
0.4326 	5.54014e-62
0.4333 	3.59571e-62
0.434 	1.65128e-62
0.4347 	1.28184e-64
0.4354 	3.50088e-65
0.4361 	2.46534e-65
0.4368 	1.97436e-65
0.4375 	1.47958e-65
0.4382 	9.84794e-66
0.4389 	4.90012e-66
0.4396 	4.03034e-69
0.4403 	1.01393e-68
0.441 	1.69818e-69
0.4417 	1.37094e-69
0.4424 	1.03929e-69
0.4431 	7.07642e-70
0.4438 	3.75995e-70
0.4445 	4.43474e-71
0.4452 	1.35679e-72
0.4459 	1.58856e-73
0.4466 	1.2897e-73
0.4473 	9.87259e-74
0.448 	6.84823e-74
0.4487 	3.82387e-74
0.4494 	7.99512e-75
0.4501 	-3.28189e-76
0.4508 	-5.30228e-76
0.4515 	-7.24051e-76
0.4522 	-7.28729e-76
0.4529 	-7.33408e-76
0.4536 	-7.38086e-76
0.4543 	-7.42764e-76
0.455 	-1.09672e-75
0.4557 	-7.98493e-76
0.4564 	-8.91684e-76
0.4571 	-8.93401e-76
0.4578 	-8.95119e-76
0.4585 	-8.96836e-76
0.4592 	-8.98553e-76
0.4599 	-1.21517e-75
0.4606 	-9.16219e-76
0.4613 	-9.66872e-76
0.462 	-9.67629e-76
0.4627 	-9.68386e-76
0.4634 	-9.69143e-76
0.4641 	-9.69901e-76
0.4648 	-1.19888e-75
0.4655 	-9.74929e-76
0.4662 	-1.00043e-75
0.4669 	-1.00264e-75
0.4676 	-1.00307e-75
0.4683 	-1.00349e-75
0.469 	-1.00392e-75
0.4697 	-1.12574e-75
0.4704 	-1.01195e-75
0.4711 	-9.84665e-76
0.4718 	-9.80314e-76
0.4725 	-9.8034e-76
0.4732 	-9.80365e-76
0.4739 	-9.8039e-76
0.4746 	-9.87165e-76
0.4753 	-1.09832e-75
0.476 	-9.18643e-76
0.4767 	-8.92474e-76
0.4774 	-8.92005e-76
0.4781 	-8.91535e-76
0.4788 	-8.91065e-76
0.4795 	-8.90596e-76
0.4802 	-1.09794e-75
0.4809 	-8.18172e-76
0.4816 	-7.67385e-76
0.4823 	-7.66621e-76
0.483 	-7.65858e-76
0.4837 	-7.65094e-76
0.4844 	-7.6433e-76
0.4851 	-1.02872e-75
0.4858 	-7.10294e-76
0.4865 	-6.50218e-76
0.4872 	-6.49524e-76
0.4879 	-6.48829e-76
0.4886 	-6.48135e-76
0.4893 	-6.4744e-76
0.49 	-9.45145e-76
0.4907 	-6.20634e-76
0.4914 	-5.72839e-76
0.4921 	-5.72577e-76
0.4928 	-5.72314e-76
0.4935 	-5.72052e-76
0.4942 	-5.7179e-76
0.4949 	-7.70245e-76
0.4956 	-5.69845e-76
0.4963 	-5.63229e-76
0.497 	-5.63925e-76
0.4977 	-5.64621e-76
0.4984 	-5.65317e-76
0.4991 	-5.66014e-76
0.4998 	-6.98965e-76
0.5005 	-5.80336e-76
0.5012 	-6.62742e-76
0.5019 	-6.71126e-76
0.5026 	-6.73815e-76
0.5033 	-6.76504e-76
0.504 	-6.79194e-76
0.5047 	-7.62976e-76
0.5054 	-6.93153e-76
0.5061 	-9.14133e-76
0.5068 	-9.67791e-76
0.5075 	-9.74326e-76
0.5082 	-9.8086e-76
0.5089 	-9.87395e-76
0.5096 	-9.99427e-76
0.5103 	-1.12495e-75
0.511 	-1.38774e-75
0.5117 	-1.55419e-75
0.5124 	-1.56719e-75
0.5131 	-1.58019e-75
0.5138 	-1.59319e-75
0.5145 	-1.60619e-75
0.5152 	-1.99408e-75
0.5159 	-2.17232e-75
0.5166 	-2.55906e-75
0.5173 	-2.58142e-75
0.518 	-2.60379e-75
0.5187 	-2.62615e-75
0.5194 	-2.64852e-75
0.5201 	-3.56881e-75
0.5208 	-3.3641e-75
0.5215 	-4.12223e-75
0.5222 	-4.15651e-75
0.5229 	-4.19079e-75
0.5236 	-4.22507e-75
0.5243 	-4.25935e-75
0.525 	-6.18594e-75
0.5257 	-5.03918e-75
0.5264 	-6.32591e-75
0.5271 	-6.37349e-75
0.5278 	-6.42107e-75
0.5285 	-6.46866e-75
0.5292 	-6.51624e-75
0.5299 	-8.73415e-75
0.5306 	-7.20854e-75
0.5313 	-9.07054e-75
0.532 	-9.12946e-75
0.5327 	-9.18838e-75
0.5334 	-9.2473e-75
0.5341 	-9.30622e-75
0.5348 	-1.14376e-74
0.5355 	-9.75271e-75
0.5362 	-1.18019e-74
0.5369 	-1.20056e-74
0.5376 	-1.20673e-74
0.5383 	-1.2129e-74
0.539 	-1.21907e-74
0.5397 	-1.36294e-74
0.5404 	-1.24127e-74
0.5411 	-1.3893e-74
0.5418 	-1.42614e-74
0.5425 	-1.431e-74
0.5432 	-1.43586e-74
0.5439 	-1.44072e-74
0.5446 	-1.45157e-74
0.5453 	-1.61321e-74
0.546 	-1.49261e-74
0.5467 	-1.51041e-74
0.5474 	-1.51219e-74
0.5481 	-1.51396e-74
0.5488 	-1.51573e-74
0.5495 	-1.51751e-74
0.5502 	-1.84875e-74
0.5509 	-1.46e-74
0.5516 	-1.41843e-74
0.5523 	-1.4163e-74
0.553 	-1.41418e-74
0.5537 	-1.41205e-74
0.5544 	-1.40993e-74
0.5551 	-1.86128e-74
0.5558 	-1.30394e-74
0.5565 	-1.19155e-74
0.5572 	-1.18643e-74
0.5579 	-1.18132e-74
0.5586 	-1.17621e-74
0.5593 	-1.1711e-74
0.56 	-1.66527e-74
0.5607 	-1.07309e-74
0.5614 	-9.16441e-75
0.5621 	-9.10331e-75
0.5628 	-9.04221e-75
0.5635 	-8.98112e-75
0.5642 	-8.92002e-75
0.5649 	-1.17084e-74
0.5656 	-8.26731e-75
0.5663 	-6.61396e-75
0.567 	-6.5591e-75
0.5677 	-6.50425e-75
0.5684 	-6.44939e-75
0.5691 	-6.39453e-75
0.5698 	-7.7059e-75
0.5705 	-6.0624e-75
0.5712 	-4.63633e-75
0.5719 	-4.4948e-75
0.5726 	-4.45209e-75
0.5733 	-4.40938e-75
0.574 	-4.36668e-75
0.5747 	-4.79638e-75
0.5754 	-4.27323e-75
0.5761 	-3.19018e-75
0.5768 	-2.93579e-75
0.5775 	-2.90485e-75
0.5782 	-2.8739e-75
0.5789 	-2.84296e-75
0.5796 	-2.82048e-75
0.5803 	-3.07727e-75
0.581 	-2.11073e-75
0.5817 	-1.82423e-75
0.5824 	-1.80303e-75
0.5831 	-1.78182e-75
0.5838 	-1.76062e-75
0.5845 	-1.73941e-75
0.5852 	-2.08769e-75
0.5859 	-1.33909e-75
0.5866 	-1.07567e-75
0.5873 	-1.06194e-75
0.588 	-1.0482e-75
0.5887 	-1.03447e-75
0.5894 	-1.02074e-75
0.5901 	-1.33289e-75
0.5908 	-8.12085e-76
0.5915 	-6.00425e-76
0.5922 	-5.92037e-76
0.5929 	-5.8365e-76
0.5936 	-5.75262e-76
0.5943 	-5.66874e-76
0.595 	-7.99817e-76
0.5957 	-4.69234e-76
0.5964 	-3.16553e-76
0.5971 	-3.11732e-76
0.5978 	-3.06912e-76
0.5985 	-3.02091e-76
0.5992 	-2.97271e-76
0.5999 	-3.87398e-76
0.6006 	-2.57492e-76
0.6013 	-1.57323e-76
0.602 	-1.54721e-76
0.6027 	-1.5212e-76
0.6034 	-1.49518e-76
0.6041 	-1.46917e-76
0.6048 	-1.75652e-76
0.6055 	-1.33778e-76
0.6062 	-7.75142e-77
0.6069 	-7.2273e-77
0.6076 	-7.09569e-77
0.6083 	-6.96408e-77
0.609 	-6.83247e-77
0.6097 	-7.43523e-77
0.6104 	-6.56962e-77
0.6111 	-3.81231e-77
0.6118 	-3.17399e-77
0.6125 	-3.11168e-77
0.6132 	-3.04936e-77
0.6139 	-2.98705e-77
0.6146 	-2.93074e-77
0.6153 	-3.18011e-77
0.616 	-1.77654e-77
0.6167 	-1.31002e-77
0.6174 	-1.28244e-77
0.6181 	-1.25485e-77
0.6188 	-1.22726e-77
0.6195 	-1.19967e-77
0.6202 	-1.43206e-77
0.6209 	-7.82404e-78
0.6216 	-5.08417e-78
0.6223 	-4.97004e-78
0.623 	-4.85591e-78
0.6237 	-4.74177e-78
0.6244 	-4.62764e-78
0.6251 	-6.01353e-78
0.6258 	-3.25186e-78
0.6265 	-1.8586e-78
0.6272 	-1.81447e-78
0.6279 	-1.77033e-78
0.6286 	-1.7262e-78
0.6293 	-1.68207e-78
0.63 	-2.36266e-78
0.6307 	-1.27564e-78
0.6314 	-6.4206e-79
0.6321 	-6.26093e-79
0.6328 	-6.10126e-79
0.6335 	-5.94159e-79
0.6342 	-5.78192e-79
0.6349 	-7.49199e-79
0.6356 	-4.73242e-79
0.6363 	-2.10613e-79
0.637 	-2.05194e-79
0.6377 	-1.99776e-79
0.6384 	-1.94357e-79
0.6391 	-1.88938e-79
0.6398 	-2.24331e-79
0.6405 	-1.66707e-79
0.6412 	-7.25936e-80
0.6419 	-6.42632e-80
0.6426 	-6.25318e-80
0.6433 	-6.08003e-80
0.644 	-5.90689e-80
0.6447 	-6.37559e-80
0.6454 	-5.61033e-80
0.6461 	-2.61634e-80
0.6468 	-1.93419e-80
0.6475 	-1.88184e-80
0.6482 	-1.82948e-80
0.6489 	-1.77712e-80
0.6496 	-1.72691e-80
0.6503 	-1.87638e-80
0.651 	-8.971e-81
0.6517 	-5.60863e-81
0.6524 	-5.45801e-81
0.6531 	-5.30739e-81
0.6538 	-5.15676e-81
0.6545 	-5.00614e-81
0.6552 	-5.99445e-81
0.6559 	-2.93225e-81
0.6566 	-1.56042e-81
0.6573 	-1.51905e-81
0.658 	-1.47768e-81
0.6587 	-1.43632e-81
0.6594 	-1.39495e-81
0.6601 	-1.82324e-81
0.6608 	-9.10381e-82
0.6615 	-4.11098e-82
0.6622 	-4.00277e-82
0.6629 	-3.89456e-82
0.6636 	-3.78634e-82
0.6643 	-3.67813e-82
0.665 	-5.20995e-82
0.6657 	-2.65352e-82
0.6664 	-1.00294e-82
0.6671 	-9.76283e-83
0.6678 	-9.49622e-83
0.6685 	-9.22961e-83
0.6692 	-8.963e-83
0.6699 	-1.17003e-82
0.6706 	-7.11239e-83
0.6713 	-2.19825e-83
0.672 	-2.13773e-83
0.6727 	-2.07722e-83
0.6734 	-2.01671e-83
0.6741 	-1.9562e-83
0.6748 	-2.33394e-83
0.6755 	-1.70256e-83
0.6762 	-5.01696e-84
0.6769 	-4.04546e-84
0.6776 	-3.92302e-84
0.6783 	-3.80058e-84
0.679 	-3.67814e-84
0.6797 	-3.96961e-84
0.6804 	-3.50462e-84
0.6811 	-1.15127e-84
0.6818 	-6.30446e-85
0.6825 	-6.09293e-85
0.6832 	-5.88141e-85
0.6839 	-5.66989e-85
0.6846 	-5.46185e-85
0.6853 	-5.9905e-85
0.686 	-2.12361e-85
0.6867 	-7.5646e-86
0.6874 	-7.26991e-86
0.6881 	-6.97521e-86
0.6888 	-6.68052e-86
0.6895 	-6.38582e-86
0.6902 	-7.70862e-86
0.6909 	-2.94607e-86
0.6916 	-6.26491e-87
0.6923 	-5.95974e-87
0.693 	-5.65457e-87
0.6937 	-5.3494e-87
0.6944 	-5.04423e-87
0.6951 	-6.61261e-87
0.6958 	-2.63444e-87
0.6965 	-9.61891e-89
0.6972 	-7.58273e-89
0.6979 	-5.54656e-89
0.6986 	-3.51038e-89
0.6993 	-1.47421e-89
0.7 	-5.55484e-90
