0 	1
0.0007 	1
0.0014 	1
0.0021 	1
0.0028 	1
0.0035 	1
0.0042 	1
0.0049 	1
0.0056 	1
0.0063 	1
0.007 	1
0.0077 	1
0.0084 	1
0.0091 	1
0.0098 	1
0.0105 	1
0.0112 	1
0.0119 	1
0.0126 	1
0.0133 	1
0.014 	1
0.0147 	1
0.0154 	1
0.0161 	1
0.0168 	1
0.0175 	1
0.0182 	1
0.0189 	1
0.0196 	1
0.0203 	1
0.021 	1
0.0217 	1
0.0224 	1
0.0231 	1
0.0238 	1
0.0245 	1
0.0252 	1
0.0259 	1
0.0266 	1
0.0273 	1
0.028 	1
0.0287 	1
0.0294 	1
0.0301 	1
0.0308 	1
0.0315 	1
0.0322 	1
0.0329 	1
0.0336 	1
0.0343 	1
0.035 	1
0.0357 	1
0.0364 	1
0.0371 	1
0.0378 	1
0.0385 	1
0.0392 	1
0.0399 	1
0.0406 	1
0.0413 	1
0.042 	1
0.0427 	1
0.0434 	1
0.0441 	1
0.0448 	1
0.0455 	1
0.0462 	1
0.0469 	1
0.0476 	1
0.0483 	1
0.049 	1
0.0497 	1
0.0504 	1
0.0511 	1
0.0518 	1
0.0525 	1
0.0532 	1
0.0539 	1
0.0546 	1
0.0553 	1
0.056 	1
0.0567 	1
0.0574 	1
0.0581 	1
0.0588 	1
0.0595 	1
0.0602 	1
0.0609 	1
0.0616 	1
0.0623 	1
0.063 	1
0.0637 	1
0.0644 	1
0.0651 	1
0.0658 	1
0.0665 	1
0.0672 	1
0.0679 	1
0.0686 	1
0.0693 	1
0.07 	1
0.0707 	1
0.0714 	1
0.0721 	1
0.0728 	1
0.0735 	1
0.0742 	1
0.0749 	1
0.0756 	1
0.0763 	1
0.077 	1
0.0777 	1
0.0784 	1
0.0791 	1
0.0798 	1
0.0805 	1
0.0812 	1
0.0819 	1
0.0826 	1
0.0833 	1
0.084 	1
0.0847 	1
0.0854 	1
0.0861 	1
0.0868 	1
0.0875 	1
0.0882 	1
0.0889 	1
0.0896 	1
0.0903 	1
0.091 	1
0.0917 	1
0.0924 	1
0.0931 	1
0.0938 	1
0.0945 	1
0.0952 	1
0.0959 	1
0.0966 	1
0.0973 	1
0.098 	1
0.0987 	1
0.0994 	1
0.1001 	1
0.1008 	1
0.1015 	1
0.1022 	1
0.1029 	1
0.1036 	1
0.1043 	1
0.105 	1
0.1057 	1
0.1064 	1
0.1071 	1
0.1078 	1
0.1085 	1
0.1092 	1
0.1099 	1
0.1106 	1
0.1113 	1
0.112 	1
0.1127 	1
0.1134 	1
0.1141 	1
0.1148 	1
0.1155 	1
0.1162 	1
0.1169 	1
0.1176 	1
0.1183 	1
0.119 	1
0.1197 	1
0.1204 	1
0.1211 	1
0.1218 	1
0.1225 	1
0.1232 	1
0.1239 	1
0.1246 	1
0.1253 	1
0.126 	1
0.1267 	1
0.1274 	1
0.1281 	1
0.1288 	1
0.1295 	1
0.1302 	1
0.1309 	1
0.1316 	1
0.1323 	1
0.133 	1
0.1337 	1
0.1344 	1
0.1351 	1
0.1358 	1
0.1365 	1
0.1372 	1
0.1379 	1
0.1386 	1
0.1393 	1
0.14 	1
0.1407 	1
0.1414 	1
0.1421 	1
0.1428 	1
0.1435 	1
0.1442 	1
0.1449 	1
0.1456 	1
0.1463 	1
0.147 	1
0.1477 	1
0.1484 	1
0.1491 	1
0.1498 	1
0.1505 	1
0.1512 	1
0.1519 	1
0.1526 	1
0.1533 	1
0.154 	1
0.1547 	1
0.1554 	1
0.1561 	1
0.1568 	1
0.1575 	1
0.1582 	1
0.1589 	1
0.1596 	1
0.1603 	1
0.161 	1
0.1617 	1
0.1624 	1
0.1631 	1
0.1638 	1
0.1645 	1
0.1652 	1
0.1659 	1
0.1666 	1
0.1673 	1
0.168 	1
0.1687 	1
0.1694 	1
0.1701 	1
0.1708 	1
0.1715 	1
0.1722 	1
0.1729 	1
0.1736 	1
0.1743 	1
0.175 	1
0.1757 	1
0.1764 	1
0.1771 	1
0.1778 	1
0.1785 	1
0.1792 	1
0.1799 	1
0.1806 	1
0.1813 	1
0.182 	1
0.1827 	1
0.1834 	1
0.1841 	1
0.1848 	1
0.1855 	1
0.1862 	1
0.1869 	1
0.1876 	1
0.1883 	1
0.189 	1
0.1897 	1
0.1904 	1
0.1911 	1
0.1918 	1
0.1925 	1
0.1932 	1
0.1939 	1
0.1946 	1
0.1953 	1
0.196 	1
0.1967 	1
0.1974 	1
0.1981 	1
0.1988 	1
0.1995 	1
0.2002 	1
0.2009 	1
0.2016 	1
0.2023 	1
0.203 	1
0.2037 	1
0.2044 	1
0.2051 	1
0.2058 	1
0.2065 	1
0.2072 	1
0.2079 	1
0.2086 	1
0.2093 	1
0.21 	1
0.2107 	1
0.2114 	1
0.2121 	1
0.2128 	1
0.2135 	1
0.2142 	1
0.2149 	1
0.2156 	1
0.2163 	1
0.217 	1
0.2177 	1
0.2184 	1
0.2191 	1
0.2198 	1
0.2205 	1
0.2212 	1
0.2219 	1
0.2226 	1
0.2233 	1
0.224 	1
0.2247 	1
0.2254 	1
0.2261 	1
0.2268 	1
0.2275 	1
0.2282 	1
0.2289 	1
0.2296 	1
0.2303 	1
0.231 	1
0.2317 	1
0.2324 	1
0.2331 	1
0.2338 	1
0.2345 	1
0.2352 	1
0.2359 	1
0.2366 	1
0.2373 	1
0.238 	1
0.2387 	1
0.2394 	1
0.2401 	1
0.2408 	1
0.2415 	1
0.2422 	1
0.2429 	1
0.2436 	1
0.2443 	1
0.245 	1
0.2457 	1
0.2464 	1
0.2471 	1
0.2478 	1
0.2485 	1
0.2492 	0.999999
0.2499 	0.999999
0.2506 	0.999999
0.2513 	0.999999
0.252 	0.999992
0.2527 	0.999976
0.2534 	0.999909
0.2541 	0.999837
0.2548 	0.999762
0.2555 	0.999756
0.2562 	0.999777
0.2569 	0.99918
0.2576 	0.998536
0.2583 	0.995677
0.259 	0.99256
0.2597 	0.989016
0.2604 	0.987065
0.2611 	0.986309
0.2618 	0.977037
0.2625 	0.965442
0.2632 	0.941163
0.2639 	0.912289
0.2646 	0.874898
0.2653 	0.842435
0.266 	0.816543
0.2667 	0.775247
0.2674 	0.725394
0.2681 	0.667951
0.2688 	0.605624
0.2695 	0.521047
0.2702 	0.436037
0.2709 	0.349943
0.2716 	0.278245
0.2723 	0.220943
0.273 	0.171609
0.2737 	0.128474
0.2744 	0.112075
0.2751 	0.0961009
0.2758 	0.0703386
0.2765 	0.0468278
0.2772 	0.0273702
0.2779 	0.0133518
0.2786 	0.0068594
0.2793 	0.0053207
0.28 	0.00513301
0.2807 	0.0038088
0.2814 	0.00253395
0.2821 	0.00144012
0.2828 	0.000581137
0.2835 	0.000336129
0.2842 	0.000239209
0.2849 	0.000224561
0.2856 	0.000174245
0.2863 	0.000118766
0.287 	7.34353e-05
0.2877 	3.25774e-05
0.2884 	2.06729e-05
0.2891 	1.42329e-05
0.2898 	1.32574e-05
0.2905 	1.06459e-05
0.2912 	7.37995e-06
0.2919 	4.72869e-06
0.2926 	2.12471e-06
0.2933 	1.38439e-06
0.294 	8.97507e-07
0.2947 	8.36193e-07
0.2954 	6.90127e-07
0.2961 	4.80497e-07
0.2968 	3.04231e-07
0.2975 	1.37064e-07
0.2982 	7.46676e-08
0.2989 	4.01383e-08
0.2996 	3.89762e-08
0.3003 	3.39919e-08
0.301 	2.39113e-08
0.3017 	1.49444e-08
0.3024 	6.59619e-09
0.3031 	2.8998e-09
0.3038 	1.27167e-09
0.3045 	1.25278e-09
0.3052 	1.14551e-09
0.3059 	8.17291e-10
0.3066 	5.15397e-10
0.3073 	2.39825e-10
0.308 	8.93324e-11
0.3087 	3.61853e-11
0.3094 	3.19333e-11
0.3101 	3.05123e-11
0.3108 	2.35096e-11
0.3115 	1.6912e-11
0.3122 	1.10436e-11
0.3129 	7.12912e-12
0.3136 	5.91879e-12
0.3143 	5.5993e-12
0.315 	5.52276e-12
0.3157 	5.43993e-12
0.3164 	5.33977e-12
0.3171 	5.1761e-12
0.3178 	4.99805e-12
0.3185 	4.78241e-12
0.3192 	4.51501e-12
0.3199 	4.21886e-12
0.3206 	3.90824e-12
0.3213 	3.59909e-12
0.322 	3.34045e-12
0.3227 	3.08217e-12
0.3234 	2.82628e-12
0.3241 	2.5974e-12
0.3248 	2.39554e-12
0.3255 	2.15974e-12
0.3262 	1.91037e-12
0.3269 	1.7087e-12
0.3276 	1.51071e-12
0.3283 	1.36138e-12
0.329 	1.23064e-12
0.3297 	1.13252e-12
0.3304 	1.01664e-12
0.3311 	8.87449e-13
0.3318 	7.79446e-13
0.3325 	6.77222e-13
0.3332 	6.00228e-13
0.3339 	5.33461e-13
0.3346 	4.87602e-13
0.3353 	4.33135e-13
0.336 	3.67191e-13
0.3367 	3.10906e-13
0.3374 	2.59986e-13
0.3381 	2.2272e-13
0.3388 	1.92224e-13
0.3395 	1.75459e-13
0.3402 	1.55809e-13
0.3409 	1.28944e-13
0.3416 	1.05251e-13
0.3423 	8.473e-14
0.343 	6.94739e-14
0.3437 	5.83189e-14
0.3444 	5.29417e-14
0.3451 	4.7435e-14
0.3458 	3.84844e-14
0.3465 	3.02964e-14
0.3472 	2.34811e-14
0.3479 	1.81586e-14
0.3486 	1.4904e-14
0.3493 	1.32888e-14
0.35 	1.21207e-14
0.3507 	9.67168e-15
0.3514 	7.34735e-15
0.3521 	5.48025e-15
0.3528 	3.91301e-15
0.3535 	3.13116e-15
0.3542 	2.71317e-15
0.3549 	2.49734e-15
0.3556 	2.00367e-15
0.3563 	1.47268e-15
0.357 	1.05859e-15
0.3577 	6.79551e-16
0.3584 	5.28201e-16
0.3591 	4.37724e-16
0.3598 	4.08118e-16
0.3605 	3.32877e-16
0.3612 	2.39382e-16
0.3619 	1.65414e-16
0.3626 	9.2947e-17
0.3633 	6.95339e-17
0.364 	5.38005e-17
0.3647 	5.10419e-17
0.3654 	4.28254e-17
0.3661 	3.05154e-17
0.3668 	2.02627e-17
0.3675 	1.05711e-17
0.3682 	6.87058e-18
0.3689 	4.78057e-18
0.3696 	4.64462e-18
0.3703 	4.06348e-18
0.371 	2.88877e-18
0.3717 	1.86184e-18
0.3724 	9.17006e-19
0.3731 	4.87214e-19
0.3738 	2.88673e-19
0.3745 	2.89764e-19
0.3752 	2.68754e-19
0.3759 	1.92494e-19
0.3766 	1.22825e-19
0.3773 	5.97462e-20
0.378 	2.55575e-20
0.3787 	1.39119e-20
0.3794 	1.34371e-20
0.3801 	1.3285e-20
0.3808 	9.91201e-21
0.3815 	6.71817e-21
0.3822 	3.84672e-21
0.3829 	1.9701e-21
0.3836 	1.47427e-21
0.3843 	1.33039e-21
0.385 	1.2825e-21
0.3857 	1.03532e-21
0.3864 	7.97197e-22
0.3871 	5.92256e-22
0.3878 	4.2608e-22
0.3885 	3.6168e-22
0.3892 	3.23956e-22
0.3899 	3.01051e-22
0.3906 	2.4173e-22
0.3913 	1.77367e-22
0.392 	1.26369e-22
0.3927 	7.99291e-23
0.3934 	6.32286e-23
0.3941 	5.37983e-23
0.3948 	5.16383e-23
0.3955 	4.22438e-23
0.3962 	2.99553e-23
0.3969 	1.98504e-23
0.3976 	9.91338e-24
0.3983 	7.3641e-24
0.399 	5.72939e-24
0.3997 	5.60572e-24
0.4004 	4.75627e-24
0.4011 	3.3625e-24
0.4018 	2.16439e-24
0.4025 	1.01964e-24
0.4032 	6.35278e-25
0.4039 	4.41549e-25
0.4046 	4.43103e-25
0.4053 	3.94383e-25
0.406 	2.78631e-25
0.4067 	1.74832e-25
0.4074 	7.76752e-26
0.4081 	3.66179e-26
0.4088 	2.04694e-26
0.4095 	2.15424e-26
0.4102 	2.06056e-26
0.4109 	1.46443e-26
0.4116 	9.06949e-27
0.4123 	3.88132e-27
0.413 	1.20974e-27
0.4137 	5.069e-28
0.4144 	5.1433e-28
0.4151 	5.45647e-28
0.4158 	3.92459e-28
0.4165 	2.44176e-28
0.4172 	1.04719e-28
0.4179 	1.84042e-29
0.4186 	6.04971e-30
0.4193 	4.14445e-30
0.42 	5.08902e-30
0.4207 	3.71447e-30
0.4214 	2.35394e-30
0.4221 	1.0448e-30
0.4228 	8.0518e-32
0.4235 	2.48138e-32
0.4242 	6.24811e-33
0.4249 	8.31508e-33
0.4256 	6.61636e-33
0.4263 	4.29406e-33
0.427 	2.02422e-33
0.4277 	5.00334e-35
0.4284 	1.71964e-35
0.4291 	9.70786e-37
0.4298 	1.35683e-36
0.4305 	1.18339e-36
0.4312 	7.86158e-37
0.4319 	3.96066e-37
0.4326 	6.52258e-39
0.4333 	9.16486e-40
0.434 	1.2039e-41
0.4347 	1.69636e-41
0.4354 	1.61176e-41
0.4361 	1.09436e-41
0.4368 	5.87206e-42
0.4375 	8.28482e-43
0.4382 	2.58153e-44
0.4389 	8.16331e-46
0.4396 	1.1657e-45
0.4403 	1.20702e-45
0.441 	8.37593e-46
0.4417 	4.73173e-46
0.4424 	1.11532e-46
0.4431 	2.4112e-48
0.4438 	4.29734e-50
0.4445 	6.22429e-50
0.4452 	7.01286e-50
0.4459 	4.95547e-50
0.4466 	2.92208e-50
0.4473 	9.12699e-51
0.448 	1.92931e-52
0.4487 	1.89069e-53
0.4494 	6.92437e-54
0.4501 	7.05255e-54
0.4508 	5.05489e-54
0.4515 	3.15989e-54
0.4522 	1.44965e-54
0.4529 	3.43371e-55
0.4536 	8.06325e-56
0.4543 	2.10516e-56
0.455 	1.6878e-56
0.4557 	1.22087e-56
0.4564 	7.86669e-57
0.4571 	4.72436e-57
0.4578 	2.0415e-57
0.4585 	5.74516e-58
0.4592 	4.56406e-59
0.4599 	3.79385e-59
0.4606 	2.80839e-59
0.4613 	1.80847e-59
0.462 	1.08679e-59
0.4627 	4.23062e-60
0.4634 	1.4288e-60
0.4641 	2.69047e-62
0.4648 	2.49457e-62
0.4655 	1.95885e-62
0.4662 	1.28719e-62
0.4669 	7.45497e-63
0.4676 	2.13803e-63
0.4683 	8.20188e-64
0.469 	3.57246e-66
0.4697 	3.52247e-66
0.4704 	2.95422e-66
0.4711 	1.99726e-66
0.4718 	1.16029e-66
0.4725 	3.56045e-67
0.4732 	1.11735e-67
0.4739 	3.31216e-70
0.4746 	3.24197e-70
0.4753 	2.82837e-70
0.476 	1.95688e-70
0.4767 	1.17164e-70
0.4774 	4.34326e-71
0.4781 	1.22422e-71
0.4788 	2.94405e-74
0.4795 	8.34186e-75
0.4802 	-3.2723e-75
0.4809 	8.82464e-75
0.4816 	1.15332e-74
0.4823 	4.85328e-75
0.483 	1.21357e-75
0.4837 	-2.97099e-77
0.4844 	-2.43249e-74
0.4851 	-4.29468e-74
0.4858 	-1.68895e-74
0.4865 	-1.40273e-76
0.4872 	-1.45638e-76
0.4879 	-1.4999e-76
0.4886 	-1.52922e-76
0.4893 	-2.34778e-74
0.49 	-5.31633e-74
0.4907 	-2.34829e-74
0.4914 	-1.63124e-76
0.4921 	-1.65589e-76
0.4928 	-1.67808e-76
0.4935 	-1.69374e-76
0.4942 	-2.09035e-74
0.4949 	-5.31557e-74
0.4956 	-3.01214e-74
0.4963 	-1.7619e-76
0.497 	-1.77568e-76
0.4977 	-1.78879e-76
0.4984 	-1.79746e-76
0.4991 	-1.69711e-74
0.4998 	-5.0553e-74
0.5005 	-3.6162e-74
0.5012 	-2.58177e-75
0.5019 	-1.83338e-76
0.5026 	-1.83558e-76
0.5033 	-1.83706e-76
0.504 	-1.21848e-74
0.5047 	-4.57878e-74
0.5054 	-4.09873e-74
0.5061 	-7.38421e-75
0.5068 	-1.82824e-76
0.5075 	-1.81948e-76
0.5082 	-1.81363e-76
0.5089 	-7.1201e-75
0.5096 	-3.9503e-74
0.5103 	-4.41284e-74
0.511 	-1.17437e-74
0.5117 	-1.76538e-76
0.5124 	-1.74757e-76
0.5131 	-1.73448e-76
0.5138 	-2.32301e-75
0.5145 	-3.24318e-74
0.5152 	-4.53347e-74
0.5159 	-1.52227e-74
0.5166 	-1.65512e-76
0.5173 	-1.631e-76
0.518 	-1.61173e-76
0.5187 	-1.5963e-76
0.5194 	-2.52789e-74
0.5201 	-4.46009e-74
0.5208 	-1.75451e-74
0.5215 	-1.51116e-76
0.5222 	-1.48365e-76
0.5229 	-1.46002e-76
0.5236 	-1.44187e-76
0.5243 	-1.86277e-74
0.525 	-4.21527e-74
0.5257 	-1.8623e-74
0.5264 	-1.34821e-76
0.5271 	-1.31987e-76
0.5278 	-1.29398e-76
0.5285 	-1.27469e-76
0.5292 	-1.28835e-74
0.5299 	-3.27274e-74
0.5306 	-1.85491e-74
0.5313 	-1.17969e-76
0.532 	-1.15253e-76
0.5327 	-1.1264e-76
0.5334 	-1.10728e-76
0.5341 	-8.25247e-75
0.5348 	-2.45379e-74
0.5355 	-1.75551e-74
0.5362 	-1.26504e-75
0.5369 	-9.91673e-77
0.5376 	-9.6717e-77
0.5383 	-9.49069e-77
0.539 	-4.75762e-75
0.5397 	-1.78165e-74
0.5404 	-1.59485e-74
0.5411 	-2.88531e-75
0.5418 	-8.43989e-77
0.5425 	-8.23014e-77
0.5432 	-8.05951e-77
0.5439 	-2.28406e-75
0.5446 	-1.25729e-74
0.5453 	-1.40411e-74
0.546 	-3.7484e-75
0.5467 	-7.13039e-77
0.5474 	-6.95775e-77
0.5481 	-6.80521e-77
0.5488 	-6.39298e-76
0.5495 	-8.65556e-75
0.5502 	-1.20901e-74
0.5509 	-4.07051e-75
0.5516 	-5.9995e-77
0.5523 	-5.86062e-77
0.553 	-5.73009e-77
0.5537 	-5.60621e-77
0.5544 	-5.8243e-75
0.5551 	-1.02611e-74
0.5558 	-4.04614e-75
0.5565 	-5.04307e-77
0.5572 	-4.93332e-77
0.5579 	-4.82573e-77
0.5586 	-4.72121e-77
0.5593 	-3.8196e-75
0.56 	-8.6211e-75
0.5607 	-3.81718e-75
0.5614 	-4.24909e-77
0.5621 	-4.16495e-77
0.5628 	-4.08007e-77
0.5635 	-3.99322e-77
0.5642 	-2.41396e-75
0.5649 	-6.10738e-75
0.5656 	-3.46751e-75
0.5663 	-3.60009e-77
0.567 	-3.53753e-77
0.5677 	-3.47379e-77
0.5684 	-3.40198e-77
0.5691 	-1.43709e-75
0.5698 	-4.24397e-75
0.5705 	-3.03983e-75
0.5712 	-2.31282e-76
0.5719 	-3.02157e-77
0.5726 	-2.97272e-77
0.5733 	-2.91283e-77
0.574 	-7.73965e-76
0.5747 	-2.86059e-75
0.5754 	-2.56167e-75
0.5761 	-4.73593e-76
0.5768 	-2.57758e-77
0.5775 	-2.53049e-77
0.5782 	-2.47969e-77
0.5789 	-3.46588e-76
0.5796 	-1.85017e-75
0.5803 	-2.06441e-75
0.581 	-5.59504e-76
0.5817 	-2.16739e-77
0.5824 	-2.11077e-77
0.5831 	-2.06229e-77
0.5838 	-9.48102e-77
0.5845 	-1.13929e-75
0.5852 	-1.58658e-75
0.5859 	-5.40887e-76
0.5866 	-1.76887e-77
0.5873 	-1.69826e-77
0.588 	-1.64526e-77
0.5887 	-1.60638e-77
0.5894 	-6.65057e-76
0.5901 	-1.16415e-75
0.5908 	-4.64127e-76
0.5915 	-1.38267e-77
0.5922 	-1.30288e-77
0.5929 	-1.24266e-77
0.5936 	-1.21038e-77
0.5943 	-3.67025e-76
0.595 	-8.1883e-76
0.5957 	-3.66129e-76
0.5964 	-1.02665e-77
0.5971 	-9.48311e-78
0.5978 	-8.84274e-78
0.5985 	-8.59093e-78
0.5992 	-1.90528e-76
0.5999 	-4.73681e-76
0.6006 	-2.7084e-76
0.6013 	-7.22557e-78
0.602 	-6.55661e-78
0.6027 	-5.9488e-78
0.6034 	-5.76542e-78
0.6041 	-9.19528e-77
0.6048 	-2.64511e-76
0.6055 	-1.90209e-76
0.6062 	-1.71623e-77
0.6069 	-4.33049e-78
0.6076 	-3.823e-78
0.6083 	-3.69108e-78
0.609 	-4.02056e-77
0.6097 	-1.42672e-76
0.6104 	-1.27848e-76
0.6111 	-2.50556e-77
0.6118 	-2.75186e-78
0.6125 	-2.39958e-78
0.6132 	-2.27479e-78
0.6139 	-1.49338e-77
0.6146 	-7.43078e-77
0.6153 	-8.2701e-77
0.616 	-2.31197e-77
0.6167 	-1.69289e-78
0.6174 	-1.46304e-78
0.6181 	-1.358e-78
0.6188 	-3.71156e-78
0.6195 	-3.73206e-77
0.6202 	-5.16882e-77
0.6209 	-1.79522e-77
0.6216 	-1.01249e-78
0.6223 	-8.69147e-79
0.623 	-7.88264e-79
0.6237 	-7.57746e-79
0.6244 	-1.80277e-77
0.6251 	-3.13032e-77
0.6258 	-1.26271e-77
0.6265 	-5.90308e-79
0.6272 	-5.04101e-79
0.6279 	-4.45966e-79
0.6286 	-4.2814e-79
0.6293 	-8.33799e-78
0.63 	-1.84099e-77
0.6307 	-8.29461e-78
0.6314 	-3.36089e-79
0.6321 	-2.8584e-79
0.6328 	-2.4632e-79
0.6335 	-2.3619e-79
0.6342 	-3.66472e-78
0.6349 	-9.00361e-78
0.6356 	-5.16926e-78
0.6363 	-1.87088e-79
0.637 	-1.5861e-79
0.6377 	-1.32976e-79
0.6384 	-1.27364e-79
0.6391 	-1.51043e-78
0.6398 	-4.28216e-78
0.6405 	-3.08477e-78
0.6412 	-2.99726e-79
0.6419 	-8.61898e-80
0.6426 	-7.04634e-80
0.6433 	-6.71928e-80
0.644 	-5.68776e-79
0.6447 	-1.97867e-78
0.6454 	-1.7732e-78
0.6461 	-3.56195e-79
0.6468 	-4.58929e-80
0.6475 	-3.74181e-80
0.6482 	-3.47043e-80
0.6489 	-1.84063e-79
0.6496 	-8.86947e-79
0.6503 	-9.8577e-79
0.651 	-2.79177e-79
0.6517 	-2.39531e-80
0.6524 	-1.94909e-80
0.6531 	-1.75554e-80
0.6538 	-4.13199e-80
0.6545 	-3.84784e-79
0.6552 	-5.31441e-79
0.6559 	-1.86083e-79
0.6566 	-1.2255e-80
0.6573 	-9.95663e-81
0.658 	-8.69612e-81
0.6587 	-8.2775e-81
0.6594 	-1.60915e-79
0.6601 	-2.78217e-79
0.6608 	-1.12858e-79
0.6615 	-6.14108e-81
0.6622 	-4.98128e-81
0.6629 	-4.21104e-81
0.6636 	-4.00348e-81
0.6643 	-6.4396e-80
0.665 	-1.41316e-79
0.6657 	-6.3931e-80
0.6664 	-3.00552e-81
0.6671 	-2.4315e-81
0.6678 	-1.98333e-81
0.6685 	-1.88235e-81
0.6692 	-2.4315e-80
0.6699 	-5.92663e-80
0.6706 	-3.4109e-80
0.6713 	-1.42632e-81
0.672 	-1.14792e-81
0.6727 	-8.97832e-82
0.6734 	-8.49642e-82
0.6741 	-8.42844e-81
0.6748 	-2.36342e-80
0.6755 	-1.7042e-80
0.6762 	-1.73065e-81
0.6769 	-5.1506e-82
0.6776 	-3.83767e-82
0.6783 	-3.59189e-82
0.679 	-2.54475e-81
0.6797 	-8.70464e-81
0.6804 	-7.79724e-81
0.6811 	-1.58938e-81
0.6818 	-2.12923e-82
0.6825 	-1.54125e-82
0.6832 	-1.36234e-82
0.6839 	-6.02819e-82
0.6846 	-2.81662e-81
0.6853 	-3.12422e-81
0.686 	-8.9023e-82
0.6867 	-7.70794e-83
0.6874 	-5.32847e-83
0.6881 	-4.32308e-83
0.6888 	-8.60927e-83
0.6895 	-7.38111e-82
0.6902 	-1.01547e-81
0.6909 	-3.56171e-82
0.6916 	-2.25303e-83
0.6923 	-1.45462e-83
0.693 	-1.02226e-83
0.6937 	-8.88102e-84
0.6944 	-1.36206e-82
0.6951 	-2.33943e-82
0.6958 	-9.47737e-83
0.6965 	-4.63531e-84
0.6972 	-2.75253e-84
0.6979 	-1.50844e-84
0.6986 	-1.19044e-84
0.6993 	-9.37799e-85
0.7 	-7.02987e-85
