0 	1
0.0007 	1
0.0014 	1
0.0021 	1
0.0028 	1
0.0035 	1
0.0042 	1
0.0049 	1
0.0056 	1
0.0063 	1
0.007 	1
0.0077 	1
0.0084 	1
0.0091 	1
0.0098 	1
0.0105 	1
0.0112 	1
0.0119 	1
0.0126 	1
0.0133 	1
0.014 	1
0.0147 	1
0.0154 	1
0.0161 	1
0.0168 	1
0.0175 	1
0.0182 	1
0.0189 	1
0.0196 	1
0.0203 	1
0.021 	1
0.0217 	1
0.0224 	1
0.0231 	1
0.0238 	1
0.0245 	1
0.0252 	1
0.0259 	1
0.0266 	1
0.0273 	1
0.028 	1
0.0287 	1
0.0294 	1
0.0301 	1
0.0308 	1
0.0315 	1
0.0322 	1
0.0329 	1
0.0336 	1
0.0343 	1
0.035 	1
0.0357 	1
0.0364 	1
0.0371 	1
0.0378 	1
0.0385 	1
0.0392 	1
0.0399 	1
0.0406 	1
0.0413 	1
0.042 	1
0.0427 	1
0.0434 	1
0.0441 	1
0.0448 	1
0.0455 	1
0.0462 	1
0.0469 	1
0.0476 	1
0.0483 	1
0.049 	1
0.0497 	1
0.0504 	1
0.0511 	1
0.0518 	1
0.0525 	1
0.0532 	1
0.0539 	1
0.0546 	1
0.0553 	1
0.056 	1
0.0567 	1
0.0574 	1
0.0581 	1
0.0588 	1
0.0595 	1
0.0602 	1
0.0609 	1
0.0616 	1
0.0623 	1
0.063 	1
0.0637 	1
0.0644 	1
0.0651 	1
0.0658 	1
0.0665 	1
0.0672 	1
0.0679 	1
0.0686 	1
0.0693 	1
0.07 	1
0.0707 	1
0.0714 	1
0.0721 	1
0.0728 	1
0.0735 	1
0.0742 	1
0.0749 	1
0.0756 	1
0.0763 	1
0.077 	1
0.0777 	1
0.0784 	1
0.0791 	1
0.0798 	1
0.0805 	1
0.0812 	1
0.0819 	1
0.0826 	1
0.0833 	1
0.084 	1
0.0847 	1
0.0854 	1
0.0861 	1
0.0868 	1
0.0875 	1
0.0882 	1
0.0889 	1
0.0896 	1
0.0903 	1
0.091 	1
0.0917 	1
0.0924 	1
0.0931 	1
0.0938 	1
0.0945 	1
0.0952 	1
0.0959 	1
0.0966 	1
0.0973 	1
0.098 	1
0.0987 	1
0.0994 	1
0.1001 	1
0.1008 	1
0.1015 	1
0.1022 	1
0.1029 	1
0.1036 	1
0.1043 	1
0.105 	1
0.1057 	1
0.1064 	1
0.1071 	1
0.1078 	1
0.1085 	1
0.1092 	1
0.1099 	1
0.1106 	1
0.1113 	1
0.112 	1
0.1127 	1
0.1134 	1
0.1141 	1
0.1148 	1
0.1155 	1
0.1162 	1
0.1169 	1
0.1176 	1
0.1183 	1
0.119 	1
0.1197 	1
0.1204 	1
0.1211 	1
0.1218 	1
0.1225 	1
0.1232 	1
0.1239 	1
0.1246 	1
0.1253 	1
0.126 	1
0.1267 	1
0.1274 	1
0.1281 	1
0.1288 	1
0.1295 	1
0.1302 	1
0.1309 	1
0.1316 	1
0.1323 	1
0.133 	1
0.1337 	1
0.1344 	1
0.1351 	1
0.1358 	1
0.1365 	1
0.1372 	1
0.1379 	1
0.1386 	1
0.1393 	1
0.14 	1
0.1407 	1
0.1414 	1
0.1421 	1
0.1428 	1
0.1435 	1
0.1442 	1
0.1449 	1
0.1456 	1
0.1463 	1
0.147 	1
0.1477 	1
0.1484 	1
0.1491 	1
0.1498 	1
0.1505 	1
0.1512 	1
0.1519 	1
0.1526 	1
0.1533 	1
0.154 	1
0.1547 	1
0.1554 	1
0.1561 	1
0.1568 	1
0.1575 	1
0.1582 	1
0.1589 	1
0.1596 	1
0.1603 	1
0.161 	1
0.1617 	1
0.1624 	1
0.1631 	1
0.1638 	1
0.1645 	1
0.1652 	1
0.1659 	1
0.1666 	1
0.1673 	1
0.168 	1
0.1687 	1
0.1694 	1
0.1701 	1
0.1708 	1
0.1715 	1
0.1722 	1
0.1729 	1
0.1736 	1
0.1743 	1
0.175 	1
0.1757 	1
0.1764 	1
0.1771 	1
0.1778 	1
0.1785 	1
0.1792 	1
0.1799 	1
0.1806 	1
0.1813 	1
0.182 	1
0.1827 	1
0.1834 	1
0.1841 	1
0.1848 	1
0.1855 	1
0.1862 	1
0.1869 	1
0.1876 	1
0.1883 	1
0.189 	1
0.1897 	1
0.1904 	1
0.1911 	1
0.1918 	1
0.1925 	1
0.1932 	1
0.1939 	1
0.1946 	1
0.1953 	1
0.196 	1
0.1967 	1
0.1974 	1
0.1981 	1
0.1988 	1
0.1995 	1
0.2002 	1
0.2009 	1
0.2016 	1
0.2023 	1
0.203 	1
0.2037 	1
0.2044 	1
0.2051 	1
0.2058 	1
0.2065 	1
0.2072 	1
0.2079 	1
0.2086 	1
0.2093 	1
0.21 	1
0.2107 	1
0.2114 	1
0.2121 	1
0.2128 	1
0.2135 	1
0.2142 	1
0.2149 	1
0.2156 	1
0.2163 	1
0.217 	1
0.2177 	1
0.2184 	1
0.2191 	1
0.2198 	1
0.2205 	1
0.2212 	1
0.2219 	0.999997
0.2226 	0.999996
0.2233 	0.999995
0.224 	0.999993
0.2247 	0.999987
0.2254 	0.999984
0.2261 	0.999983
0.2268 	0.999898
0.2275 	0.999873
0.2282 	0.999847
0.2289 	0.999785
0.2296 	0.999588
0.2303 	0.999489
0.231 	0.99952
0.2317 	0.997461
0.2324 	0.996948
0.2331 	0.996436
0.2338 	0.995601
0.2345 	0.99057
0.2352 	0.987403
0.2359 	0.988895
0.2366 	0.974189
0.2373 	0.96309
0.238 	0.951991
0.2387 	0.940891
0.2394 	0.897104
0.2401 	0.853671
0.2408 	0.827447
0.2415 	0.789444
0.2422 	0.742111
0.2429 	0.695822
0.2436 	0.649532
0.2443 	0.57733
0.245 	0.498061
0.2457 	0.416263
0.2464 	0.344324
0.2471 	0.292802
0.2478 	0.236751
0.2485 	0.180701
0.2492 	0.154237
0.2499 	0.144209
0.2506 	0.116921
0.2513 	0.0884614
0.252 	0.0715155
0.2527 	0.0484218
0.2534 	0.0253281
0.2541 	0.0141674
0.2548 	0.0149399
0.2555 	0.0128541
0.2562 	0.00962508
0.2569 	0.00785936
0.2576 	0.00503622
0.2583 	0.00221307
0.259 	0.000422168
0.2597 	0.000489338
0.2604 	0.000456352
0.2611 	0.000348249
0.2618 	0.000287201
0.2625 	0.000185264
0.2632 	8.33266e-05
0.2639 	3.40296e-06
0.2646 	4.19702e-06
0.2653 	4.24069e-06
0.266 	3.28386e-06
0.2667 	2.74048e-06
0.2674 	1.80669e-06
0.2681 	8.72898e-07
0.2688 	5.92119e-09
0.2695 	7.5601e-09
0.2702 	8.22176e-09
0.2709 	6.44032e-09
0.2716 	5.42868e-09
0.2723 	3.66987e-09
0.273 	1.91105e-09
0.2737 	1.52235e-10
0.2744 	2.71542e-11
0.2751 	2.76838e-11
0.2758 	2.78012e-11
0.2765 	2.75652e-11
0.2772 	2.70872e-11
0.2779 	2.66432e-11
0.2786 	2.61992e-11
0.2793 	2.49775e-11
0.28 	2.35437e-11
0.2807 	2.3389e-11
0.2814 	2.30001e-11
0.2821 	2.22205e-11
0.2828 	2.15747e-11
0.2835 	2.09289e-11
0.2842 	1.95795e-11
0.2849 	1.78392e-11
0.2856 	1.6316e-11
0.2863 	1.48602e-11
0.287 	1.36955e-11
0.2877 	1.24649e-11
0.2884 	1.12343e-11
0.2891 	1.02218e-11
0.2898 	9.42738e-12
0.2905 	8.20904e-12
0.2912 	6.82116e-12
0.2919 	6.00786e-12
0.2926 	4.99946e-12
0.2933 	3.99107e-12
0.294 	3.30017e-12
0.2947 	3.18077e-12
0.2954 	2.8019e-12
0.2961 	2.22843e-12
0.2968 	1.89183e-12
0.2975 	1.45217e-12
0.2982 	1.0125e-12
0.2989 	6.6629e-13
0.2996 	6.62762e-13
0.3003 	6.07762e-13
0.301 	4.84131e-13
0.3017 	4.07805e-13
0.3024 	3.06046e-13
0.3031 	2.04286e-13
0.3038 	1.0954e-13
0.3045 	1.0597e-13
0.3052 	9.83996e-14
0.3059 	8.08254e-14
0.3066 	6.90369e-14
0.3073 	5.45344e-14
0.308 	4.0032e-14
0.3087 	2.55295e-14
0.3094 	2.2935e-14
0.3101 	2.10114e-14
0.3108 	1.76171e-14
0.3115 	1.50169e-14
0.3122 	1.24885e-14
0.3129 	9.84548e-15
0.3136 	7.20251e-15
0.3143 	6.30298e-15
0.315 	5.87894e-15
0.3157 	4.8376e-15
0.3164 	3.95588e-15
0.3171 	3.27816e-15
0.3178 	2.49264e-15
0.3185 	1.70711e-15
0.3192 	1.39976e-15
0.3199 	1.35807e-15
0.3206 	1.11881e-15
0.3213 	8.62264e-16
0.322 	7.07703e-16
0.3227 	4.95349e-16
0.3234 	2.82995e-16
0.3241 	1.80093e-16
0.3248 	1.86642e-16
0.3255 	1.60244e-16
0.3262 	1.20666e-16
0.3269 	9.90305e-17
0.3276 	6.5413e-17
0.3283 	3.17956e-17
0.329 	1.05116e-17
0.3297 	1.1428e-17
0.3304 	1.04186e-17
0.3311 	7.96471e-18
0.3318 	6.55208e-18
0.3325 	4.34154e-18
0.3332 	2.13101e-18
0.3339 	3.92478e-19
0.3346 	3.84664e-19
0.3353 	3.48414e-19
0.336 	2.7425e-19
0.3367 	2.26852e-19
0.3374 	1.64925e-19
0.3381 	1.02998e-19
0.3388 	4.50635e-20
0.3395 	3.90311e-20
0.3402 	3.29728e-20
0.3409 	2.68499e-20
0.3416 	2.21618e-20
0.3423 	1.77853e-20
0.343 	1.34088e-20
0.3437 	9.03232e-21
0.3444 	7.49689e-21
0.3451 	6.19415e-21
0.3458 	4.97621e-21
0.3465 	3.98912e-21
0.3472 	3.17159e-21
0.3479 	2.3338e-21
0.3486 	1.496e-21
0.3493 	1.1691e-21
0.35 	9.81532e-22
0.3507 	7.71587e-22
0.3514 	5.90599e-22
0.3521 	4.59219e-22
0.3528 	3.12007e-22
0.3535 	1.64794e-22
0.3542 	1.04792e-22
0.3549 	9.32415e-23
0.3556 	7.40982e-23
0.3563 	5.47696e-23
0.357 	4.30239e-23
0.3577 	2.76255e-23
0.3584 	1.2227e-23
0.3591 	4.40618e-24
0.3598 	4.16296e-24
0.3605 	3.44352e-24
0.3612 	2.5336e-24
0.3619 	2.02677e-24
0.3626 	1.29267e-24
0.3633 	5.58582e-25
0.364 	8.56264e-26
0.3647 	8.27255e-26
0.3654 	7.11481e-26
0.3661 	5.30633e-26
0.3668 	4.25251e-26
0.3675 	2.76203e-26
0.3682 	1.27155e-26
0.3689 	9.96151e-28
0.3696 	9.56754e-28
0.3703 	8.44713e-28
0.371 	6.35814e-28
0.3717 	5.08551e-28
0.3724 	3.37875e-28
0.3731 	1.672e-28
0.3738 	8.69491e-30
0.3745 	8.42289e-30
0.3752 	7.70218e-30
0.3759 	5.85977e-30
0.3766 	4.69053e-30
0.3773 	3.18003e-30
0.378 	1.66954e-30
0.3787 	1.59047e-31
0.3794 	4.98827e-32
0.3801 	4.71545e-32
0.3808 	3.62422e-32
0.3815 	2.85263e-32
0.3822 	2.0065e-32
0.3829 	1.1082e-32
0.3836 	2.09895e-33
0.3843 	1.68731e-34
0.385 	1.62033e-34
0.3857 	1.2575e-34
0.3864 	9.58389e-35
0.3871 	7.10521e-35
0.3878 	4.12144e-35
0.3885 	1.13766e-35
0.3892 	7.29287e-37
0.3899 	7.43493e-37
0.3906 	6.16074e-37
0.3913 	4.74347e-37
0.392 	3.87872e-37
0.3927 	2.64579e-37
0.3934 	1.41287e-37
0.3941 	8.33131e-38
0.3948 	9.06601e-38
0.3955 	8.0856e-38
0.3962 	6.41915e-38
0.3969 	5.63175e-38
0.3976 	4.43464e-38
0.3983 	3.23754e-38
0.399 	2.57726e-38
0.3997 	2.88329e-38
0.4004 	2.69556e-38
0.4011 	2.13751e-38
0.4018 	1.85585e-38
0.4025 	1.45359e-38
0.4032 	1.05132e-38
0.4039 	7.59381e-39
0.4046 	8.71955e-39
0.4053 	8.56699e-39
0.406 	6.71004e-39
0.4067 	5.68728e-39
0.4074 	4.21938e-39
0.4081 	2.75148e-39
0.4088 	1.40859e-39
0.4095 	1.69089e-39
0.4102 	1.78185e-39
0.4109 	1.39444e-39
0.4116 	1.17073e-39
0.4123 	8.28598e-40
0.413 	4.86463e-40
0.4137 	1.44328e-40
0.4144 	1.49318e-40
0.4151 	1.71329e-40
0.4158 	1.35249e-40
0.4165 	1.11856e-40
0.4172 	7.97936e-41
0.4179 	4.52702e-41
0.4186 	1.07469e-41
0.4193 	4.14683e-42
0.42 	5.16231e-42
0.4207 	4.11246e-42
0.4214 	3.28666e-42
0.4221 	2.47108e-42
0.4228 	1.43325e-42
0.4235 	3.95424e-43
0.4242 	2.97977e-44
0.4249 	3.76227e-44
0.4256 	3.20003e-44
0.4263 	2.4698e-44
0.427 	1.96637e-44
0.4277 	1.18293e-44
0.4284 	3.99494e-45
0.4291 	9.00706e-47
0.4298 	1.14778e-46
0.4305 	1.04179e-46
0.4312 	7.94565e-47
0.4319 	6.53621e-47
0.4326 	4.06952e-47
0.4333 	1.60283e-47
0.434 	1.90388e-49
0.4347 	2.44759e-49
0.4354 	2.36982e-49
0.4361 	1.82593e-49
0.4368 	1.51525e-49
0.4375 	9.71786e-50
0.4382 	4.28319e-50
0.4389 	1.396e-52
0.4396 	1.81164e-52
0.4403 	1.87098e-52
0.441 	1.45524e-52
0.4417 	1.21755e-52
0.4424 	8.01847e-53
0.4431 	3.86149e-53
0.4438 	1.46076e-56
0.4445 	1.915e-56
0.4452 	2.10964e-56
0.4459 	1.65532e-56
0.4466 	1.39544e-56
0.4473 	9.41134e-57
0.448 	4.86829e-57
0.4487 	3.25243e-58
0.4494 	9.38844e-61
0.4501 	1.10347e-60
0.4508 	8.72933e-61
0.4515 	7.24734e-61
0.4522 	5.10477e-61
0.4529 	2.79951e-61
0.4536 	4.94259e-62
0.4543 	3.35323e-65
0.455 	4.20627e-65
0.4557 	3.35302e-65
0.4564 	2.68261e-65
0.4571 	2.01126e-65
0.4578 	1.15803e-65
0.4585 	3.04811e-66
0.4592 	1.02841e-69
0.4599 	1.29986e-69
0.4606 	1.1059e-69
0.4613 	8.53772e-70
0.462 	6.81371e-70
0.4627 	4.13772e-70
0.4634 	1.46174e-70
0.4641 	1.43367e-71
0.4648 	1.8263e-71
0.4655 	1.65763e-71
0.4662 	1.26445e-71
0.4669 	1.07068e-71
0.4676 	7.4045e-72
0.4683 	4.10222e-72
0.469 	2.20365e-72
0.4697 	2.8318e-72
0.4704 	2.74163e-72
0.4711 	2.11271e-72
0.4718 	1.76945e-72
0.4725 	1.18887e-72
0.4732 	6.0829e-73
0.4739 	1.62412e-73
0.4746 	2.1044e-73
0.4753 	2.17291e-73
0.476 	1.69239e-73
0.4767 	1.43017e-73
0.4774 	1.01171e-73
0.4781 	5.93256e-74
0.4788 	2.08953e-74
0.4795 	2.68693e-74
0.4802 	2.94292e-74
0.4809 	2.34539e-74
0.4816 	2.01321e-74
0.4823 	1.56153e-74
0.483 	1.10986e-74
0.4837 	6.58181e-75
0.4844 	7.22563e-75
0.4851 	7.969e-75
0.4858 	6.92773e-75
0.4865 	6.25791e-75
0.4872 	4.85105e-75
0.4879 	3.34049e-75
0.4886 	1.82993e-75
0.4893 	7.46266e-76
0.49 	-2.20963e-76
0.4907 	7.46129e-76
0.4914 	1.50518e-75
0.4921 	1.17057e-75
0.4928 	7.47325e-76
0.4935 	3.24075e-76
0.4942 	-1.03835e-75
0.4949 	-2.92253e-75
0.4956 	-1.59346e-75
0.4963 	1.37538e-76
0.497 	9.63641e-77
0.4977 	3.60065e-77
0.4984 	-2.43511e-77
0.4991 	-1.32569e-75
0.4998 	-3.86801e-75
0.5005 	-2.79028e-75
0.5012 	-2.64518e-76
0.5019 	-9.86936e-77
0.5026 	-1.17488e-76
0.5033 	-1.36281e-76
0.504 	-1.51828e-75
0.5047 	-5.3541e-75
0.5054 	-4.83118e-75
0.5061 	-1.03921e-75
0.5068 	-2.70571e-76
0.5075 	-3.38191e-76
0.5082 	-4.05811e-76
0.5089 	-2.12302e-75
0.5096 	-9.88887e-75
0.5103 	-1.1076e-74
0.511 	-3.49141e-75
0.5117 	-9.12136e-76
0.5124 	-1.18e-75
0.5131 	-1.44785e-75
0.5138 	-3.02021e-75
0.5145 	-2.15519e-74
0.5152 	-2.96859e-74
0.5159 	-1.18256e-74
0.5166 	-3.16159e-75
0.5173 	-4.02456e-75
0.518 	-4.88753e-75
0.5187 	-5.7505e-75
0.5194 	-4.53584e-74
0.5201 	-7.6042e-74
0.5208 	-3.52969e-74
0.5215 	-9.4798e-75
0.5222 	-1.15478e-74
0.5229 	-1.36885e-74
0.5236 	-1.58292e-74
0.5243 	-8.59178e-74
0.525 	-1.74538e-73
0.5257 	-8.98517e-74
0.5264 	-2.37334e-74
0.5271 	-2.75667e-74
0.5278 	-3.18953e-74
0.5285 	-3.62239e-74
0.5292 	-1.45937e-73
0.5299 	-3.14197e-73
0.5306 	-2.00086e-73
0.5313 	-5.06577e-74
0.532 	-5.67348e-74
0.5327 	-6.43476e-74
0.5334 	-7.19604e-74
0.5341 	-2.24071e-73
0.5348 	-5.20683e-73
0.5355 	-4.01755e-73
0.5362 	-1.16611e-73
0.5369 	-1.04486e-73
0.5376 	-1.16663e-73
0.5383 	-1.2884e-73
0.539 	-3.11618e-73
0.5397 	-8.01481e-73
0.5404 	-7.41285e-73
0.5411 	-2.68545e-73
0.5418 	-1.76681e-73
0.5425 	-1.94668e-73
0.5432 	-2.12655e-73
0.5439 	-3.88978e-73
0.5446 	-1.14588e-72
0.5453 	-1.26405e-72
0.546 	-5.30592e-73
0.5467 	-2.77618e-73
0.5474 	-3.01833e-73
0.5481 	-3.26049e-73
0.5488 	-4.25889e-73
0.5495 	-1.50889e-72
0.5502 	-1.98115e-72
0.5509 	-9.26568e-73
0.5516 	-4.05375e-73
0.5523 	-4.33926e-73
0.553 	-4.62477e-73
0.5537 	-4.91029e-73
0.5544 	-1.80569e-72
0.5551 	-2.81947e-72
0.5558 	-1.43435e-72
0.5565 	-5.46635e-73
0.5572 	-5.72884e-73
0.5579 	-6.00435e-73
0.5586 	-6.27985e-73
0.5593 	-1.93958e-72
0.56 	-3.60137e-72
0.5607 	-1.96021e-72
0.5614 	-6.71509e-73
0.5621 	-6.87324e-73
0.5628 	-7.06329e-73
0.5635 	-7.25335e-73
0.5642 	-1.85691e-72
0.5649 	-3.6066e-72
0.5656 	-2.36182e-72
0.5663 	-7.42427e-73
0.567 	-7.44806e-73
0.5677 	-7.49268e-73
0.5684 	-7.53731e-73
0.5691 	-1.58256e-72
0.5698 	-3.23577e-72
0.5705 	-2.51963e-72
0.5712 	-8.55744e-73
0.5719 	-7.28733e-73
0.5726 	-7.17598e-73
0.5733 	-7.06463e-73
0.574 	-1.20354e-72
0.5747 	-2.61541e-72
0.5754 	-2.40061e-72
0.5761 	-9.65791e-73
0.5768 	-6.46517e-73
0.5775 	-6.23917e-73
0.5782 	-6.01317e-73
0.5789 	-8.19388e-73
0.5796 	-1.91993e-72
0.5803 	-2.06515e-72
0.581 	-9.36578e-73
0.5817 	-5.2372e-73
0.5824 	-4.96308e-73
0.5831 	-4.68896e-73
0.5838 	-4.99955e-73
0.5845 	-1.29117e-72
0.5852 	-1.62264e-72
0.5859 	-8.04761e-73
0.5866 	-3.90534e-73
0.5873 	-3.64304e-73
0.588 	-3.38075e-73
0.5887 	-3.11845e-73
0.5894 	-8.02046e-73
0.5901 	-1.17748e-72
0.5908 	-6.25982e-73
0.5915 	-2.69379e-73
0.5922 	-2.48902e-73
0.5929 	-2.27425e-73
0.5936 	-2.05949e-73
0.5943 	-4.63458e-73
0.595 	-7.97056e-73
0.5957 	-4.47941e-73
0.5964 	-1.72788e-73
0.5971 	-1.59542e-73
0.5978 	-1.43883e-73
0.5985 	-1.28223e-73
0.5992 	-2.50422e-73
0.5999 	-4.4921e-73
0.6006 	-2.98494e-73
0.6013 	-1.04275e-73
0.602 	-9.66161e-74
0.6027 	-8.61928e-74
0.6034 	-7.57695e-74
0.6041 	-1.26921e-73
0.6048 	-2.39647e-73
0.6055 	-1.86908e-73
0.6062 	-6.79822e-74
0.6069 	-5.55944e-74
0.6076 	-4.91555e-74
0.6083 	-4.27166e-74
0.609 	-6.03892e-74
0.6097 	-1.21463e-73
0.6104 	-1.10713e-73
0.6111 	-4.6096e-74
0.6118 	-3.0539e-74
0.6125 	-2.68051e-74
0.6132 	-2.30712e-74
0.6139 	-2.69295e-74
0.6146 	-5.86269e-74
0.6153 	-6.23324e-74
0.616 	-2.87155e-74
0.6167 	-1.60696e-74
0.6174 	-1.40189e-74
0.6181 	-1.19682e-74
0.6188 	-1.1191e-74
0.6195 	-2.69688e-74
0.6202 	-3.34478e-74
0.6209 	-1.66795e-74
0.6216 	-8.11713e-75
0.6223 	-7.04471e-75
0.623 	-5.9723e-75
0.6237 	-4.89989e-75
0.6244 	-1.18222e-74
0.6251 	-1.71364e-74
0.6258 	-9.1114e-75
0.6265 	-3.91465e-75
0.6272 	-3.40581e-75
0.6279 	-2.87014e-75
0.6286 	-2.33448e-75
0.6293 	-4.93669e-75
0.63 	-8.3947e-75
0.6307 	-4.70704e-75
0.6314 	-1.79912e-75
0.6321 	-1.58544e-75
0.6328 	-1.32924e-75
0.6335 	-1.07304e-75
0.6342 	-1.96123e-75
0.6349 	-3.48522e-75
0.6356 	-2.3079e-75
0.6363 	-7.95071e-76
0.637 	-7.10919e-76
0.6377 	-5.93436e-76
0.6384 	-4.75952e-76
0.6391 	-7.39891e-76
0.6398 	-1.38526e-75
0.6405 	-1.07672e-75
0.6412 	-3.86628e-76
0.6419 	-3.07154e-76
0.6426 	-2.55463e-76
0.6433 	-2.03772e-76
0.644 	-2.64367e-76
0.6447 	-5.27082e-76
0.6454 	-4.78968e-76
0.6461 	-1.97732e-76
0.6468 	-1.27893e-76
0.6475 	-1.06053e-76
0.6482 	-8.42134e-77
0.6489 	-8.9089e-77
0.6496 	-1.91924e-76
0.6503 	-2.03462e-76
0.651 	-9.32733e-77
0.6517 	-5.13245e-77
0.6524 	-4.24605e-77
0.6531 	-3.35965e-77
0.6538 	-2.81318e-77
0.6545 	-6.68599e-77
0.6552 	-8.26576e-77
0.6559 	-4.11296e-77
0.6566 	-1.98564e-77
0.6573 	-1.63998e-77
0.658 	-1.29432e-77
0.6587 	-9.48663e-78
0.6594 	-2.22855e-77
0.6601 	-3.21747e-77
0.6608 	-1.71022e-77
0.6615 	-7.34272e-78
0.6622 	-6.11409e-78
0.6629 	-4.81784e-78
0.6636 	-3.52159e-78
0.6643 	-7.10609e-78
0.665 	-1.20217e-77
0.6657 	-6.74685e-78
0.6664 	-2.58779e-78
0.6671 	-2.20155e-78
0.6678 	-1.73359e-78
0.6685 	-1.26563e-78
0.6692 	-2.16607e-78
0.6699 	-3.82676e-78
0.6706 	-2.53653e-78
0.6713 	-8.80165e-79
0.672 	-7.66028e-79
0.6727 	-6.03232e-79
0.6734 	-4.40437e-79
0.6741 	-6.30131e-79
0.6748 	-1.17232e-78
0.6755 	-9.11753e-79
0.6762 	-3.30084e-79
0.6769 	-2.57646e-79
0.6776 	-2.03033e-79
0.6783 	-1.48421e-79
0.679 	-1.74447e-79
0.6797 	-3.45625e-79
0.6804 	-3.141e-79
0.6811 	-1.30548e-79
0.6818 	-8.37858e-80
0.6825 	-6.61102e-80
0.6832 	-4.84346e-80
0.6839 	-4.57516e-80
0.6846 	-9.80422e-80
0.6853 	-1.0391e-79
0.686 	-4.78813e-80
0.6867 	-2.63518e-80
0.6874 	-2.08298e-80
0.6881 	-1.53078e-80
0.6888 	-1.12846e-80
0.6895 	-2.67475e-80
0.6902 	-3.30632e-80
0.6909 	-1.65112e-80
0.6916 	-8.01864e-81
0.6923 	-6.35248e-81
0.693 	-4.68631e-81
0.6937 	-3.02015e-81
0.6944 	-7.01269e-81
0.6951 	-1.01317e-80
0.6958 	-5.39759e-81
0.6965 	-2.33929e-81
0.6972 	-1.9814e-81
0.6979 	-1.60299e-81
0.6986 	-1.22459e-81
0.6993 	-2.71409e-81
0.7 	-4.71304e-81
