0 	1
0.0007 	1
0.0014 	1
0.0021 	1
0.0028 	1
0.0035 	1
0.0042 	1
0.0049 	1
0.0056 	1
0.0063 	1
0.007 	1
0.0077 	1
0.0084 	1
0.0091 	1
0.0098 	1
0.0105 	1
0.0112 	1
0.0119 	1
0.0126 	1
0.0133 	1
0.014 	1
0.0147 	1
0.0154 	1
0.0161 	1
0.0168 	1
0.0175 	1
0.0182 	1
0.0189 	1
0.0196 	1
0.0203 	1
0.021 	1
0.0217 	1
0.0224 	1
0.0231 	1
0.0238 	1
0.0245 	1
0.0252 	1
0.0259 	1
0.0266 	1
0.0273 	1
0.028 	1
0.0287 	1
0.0294 	1
0.0301 	1
0.0308 	1
0.0315 	1
0.0322 	1
0.0329 	1
0.0336 	1
0.0343 	1
0.035 	1
0.0357 	1
0.0364 	1
0.0371 	1
0.0378 	1
0.0385 	1
0.0392 	1
0.0399 	1
0.0406 	1
0.0413 	1
0.042 	1
0.0427 	1
0.0434 	1
0.0441 	1
0.0448 	1
0.0455 	1
0.0462 	1
0.0469 	1
0.0476 	1
0.0483 	1
0.049 	1
0.0497 	1
0.0504 	1
0.0511 	1
0.0518 	1
0.0525 	1
0.0532 	1
0.0539 	1
0.0546 	1
0.0553 	1
0.056 	1
0.0567 	1
0.0574 	1
0.0581 	1
0.0588 	1
0.0595 	1
0.0602 	1
0.0609 	1
0.0616 	1
0.0623 	1
0.063 	1
0.0637 	1
0.0644 	1
0.0651 	1
0.0658 	1
0.0665 	1
0.0672 	1
0.0679 	1
0.0686 	1
0.0693 	1
0.07 	1
0.0707 	1
0.0714 	1
0.0721 	1
0.0728 	1
0.0735 	1
0.0742 	1
0.0749 	1
0.0756 	1
0.0763 	1
0.077 	1
0.0777 	1
0.0784 	1
0.0791 	1
0.0798 	1
0.0805 	1
0.0812 	1
0.0819 	1
0.0826 	1
0.0833 	1
0.084 	1
0.0847 	1
0.0854 	1
0.0861 	1
0.0868 	1
0.0875 	1
0.0882 	1
0.0889 	1
0.0896 	1
0.0903 	1
0.091 	1
0.0917 	1
0.0924 	1
0.0931 	1
0.0938 	1
0.0945 	1
0.0952 	1
0.0959 	1
0.0966 	1
0.0973 	1
0.098 	1
0.0987 	1
0.0994 	1
0.1001 	1
0.1008 	1
0.1015 	1
0.1022 	1
0.1029 	1
0.1036 	1
0.1043 	1
0.105 	1
0.1057 	1
0.1064 	1
0.1071 	1
0.1078 	1
0.1085 	1
0.1092 	1
0.1099 	1
0.1106 	1
0.1113 	1
0.112 	1
0.1127 	1
0.1134 	1
0.1141 	1
0.1148 	1
0.1155 	1
0.1162 	1
0.1169 	1
0.1176 	1
0.1183 	1
0.119 	1
0.1197 	1
0.1204 	1
0.1211 	1
0.1218 	1
0.1225 	1
0.1232 	1
0.1239 	1
0.1246 	1
0.1253 	1
0.126 	1
0.1267 	1
0.1274 	1
0.1281 	1
0.1288 	1
0.1295 	1
0.1302 	1
0.1309 	1
0.1316 	1
0.1323 	1
0.133 	1
0.1337 	1
0.1344 	1
0.1351 	1
0.1358 	1
0.1365 	1
0.1372 	1
0.1379 	1
0.1386 	1
0.1393 	1
0.14 	1
0.1407 	1
0.1414 	1
0.1421 	1
0.1428 	1
0.1435 	1
0.1442 	1
0.1449 	1
0.1456 	1
0.1463 	1
0.147 	1
0.1477 	1
0.1484 	1
0.1491 	1
0.1498 	1
0.1505 	1
0.1512 	1
0.1519 	1
0.1526 	1
0.1533 	1
0.154 	1
0.1547 	1
0.1554 	1
0.1561 	1
0.1568 	1
0.1575 	1
0.1582 	1
0.1589 	1
0.1596 	1
0.1603 	1
0.161 	1
0.1617 	0.999999
0.1624 	0.999998
0.1631 	0.999998
0.1638 	0.999997
0.1645 	0.999996
0.1652 	0.999995
0.1659 	0.999994
0.1666 	0.99986
0.1673 	0.999591
0.168 	0.999459
0.1687 	0.999356
0.1694 	0.999004
0.1701 	0.998649
0.1708 	0.998385
0.1715 	0.99535
0.1722 	0.987323
0.1729 	0.98168
0.1736 	0.977169
0.1743 	0.966556
0.175 	0.95428
0.1757 	0.942756
0.1764 	0.92388
0.1771 	0.878041
0.1778 	0.837562
0.1785 	0.801704
0.1792 	0.743785
0.1799 	0.673608
0.1806 	0.601405
0.1813 	0.529706
0.182 	0.468956
0.1827 	0.407391
0.1834 	0.344584
0.1841 	0.287673
0.1848 	0.236658
0.1855 	0.182539
0.1862 	0.127179
0.1869 	0.101084
0.1876 	0.0746705
0.1883 	0.0407268
0.189 	0.0180397
0.1897 	0.0156151
0.1904 	0.0124028
0.1911 	0.00859962
0.1918 	0.00682835
0.1925 	0.00544619
0.1932 	0.00277116
0.1939 	0.000650291
0.1946 	0.000561452
0.1953 	0.000454287
0.196 	0.000322689
0.1967 	0.000247087
0.1974 	0.000202595
0.1981 	0.000112991
0.1988 	2.83085e-05
0.1995 	2.4514e-05
0.2002 	2.01848e-05
0.2009 	1.45193e-05
0.2016 	1.07451e-05
0.2023 	8.86231e-06
0.203 	5.2848e-06
0.2037 	1.36211e-06
0.2044 	9.51964e-07
0.2051 	8.00914e-07
0.2058 	5.83091e-07
0.2065 	4.18088e-07
0.2072 	3.48166e-07
0.2079 	2.21352e-07
0.2086 	6.89291e-08
0.2093 	3.27148e-08
0.21 	2.81951e-08
0.2107 	2.07757e-08
0.2114 	1.44563e-08
0.2121 	1.21705e-08
0.2128 	8.25156e-09
0.2135 	2.988e-09
0.2142 	1.02453e-09
0.2149 	8.94498e-10
0.2156 	6.8003e-10
0.2163 	4.6299e-10
0.217 	3.95481e-10
0.2177 	2.88258e-10
0.2184 	1.23241e-10
0.2191 	3.87345e-11
0.2198 	3.47402e-11
0.2205 	2.84491e-11
0.2212 	2.12393e-11
0.2219 	1.8591e-11
0.2226 	1.54802e-11
0.2233 	1.01264e-11
0.224 	6.5268e-12
0.2247 	6.08491e-12
0.2254 	5.53477e-12
0.2261 	4.90344e-12
0.2268 	4.4985e-12
0.2275 	4.13647e-12
0.2282 	3.64269e-12
0.2289 	3.21052e-12
0.2296 	3.00424e-12
0.2303 	2.77621e-12
0.231 	2.51918e-12
0.2317 	2.30857e-12
0.2324 	2.12374e-12
0.2331 	1.92198e-12
0.2338 	1.72503e-12
0.2345 	1.59438e-12
0.2352 	1.45692e-12
0.2359 	1.30243e-12
0.2366 	1.17135e-12
0.2373 	1.06366e-12
0.238 	9.517e-13
0.2387 	8.38944e-13
0.2394 	7.69068e-13
0.2401 	7.00649e-13
0.2408 	6.21179e-13
0.2415 	5.51152e-13
0.2422 	4.98123e-13
0.2429 	4.43028e-13
0.2436 	3.87053e-13
0.2443 	3.51574e-13
0.245 	3.21683e-13
0.2457 	2.85063e-13
0.2464 	2.51112e-13
0.2471 	2.2695e-13
0.2478 	2.02016e-13
0.2485 	1.76475e-13
0.2492 	1.58824e-13
0.2499 	1.45556e-13
0.2506 	1.29282e-13
0.2513 	1.12924e-13
0.252 	1.01972e-13
0.2527 	9.07322e-14
0.2534 	7.90941e-14
0.2541 	7.03189e-14
0.2548 	6.44067e-14
0.2555 	5.72025e-14
0.2562 	4.94814e-14
0.2569 	4.43726e-14
0.2576 	3.935e-14
0.2583 	3.40301e-14
0.259 	2.96983e-14
0.2597 	2.7145e-14
0.2604 	2.40892e-14
0.2611 	2.06567e-14
0.2618 	1.82713e-14
0.2625 	1.61378e-14
0.2632 	1.37931e-14
0.2639 	1.17294e-14
0.2646 	1.06963e-14
0.2653 	9.49628e-15
0.266 	8.07376e-15
0.2667 	7.02802e-15
0.2674 	6.19161e-15
0.2681 	5.22853e-15
0.2688 	4.30623e-15
0.2695 	3.91993e-15
0.2702 	3.48892e-15
0.2709 	2.94615e-15
0.2716 	2.52069e-15
0.2723 	2.21254e-15
0.273 	1.85574e-15
0.2737 	1.49072e-15
0.2744 	1.34039e-15
0.2751 	1.19834e-15
0.2758 	1.00689e-15
0.2765 	8.46139e-16
0.2772 	7.40624e-16
0.2779 	6.19038e-16
0.2786 	4.91029e-16
0.2793 	4.2958e-16
0.28 	3.86284e-16
0.2807 	3.23365e-16
0.2814 	2.66684e-16
0.2821 	2.32875e-16
0.2828 	1.94449e-16
0.2835 	1.52589e-16
0.2842 	1.29183e-16
0.2849 	1.16028e-16
0.2856 	9.75711e-17
0.2863 	7.88855e-17
0.287 	6.87185e-17
0.2877 	5.74135e-17
0.2884 	4.4615e-17
0.2891 	3.63405e-17
0.2898 	3.25901e-17
0.2905 	2.75552e-17
0.2912 	2.20066e-17
0.2919 	1.89515e-17
0.2926 	1.58599e-17
0.2933 	1.22135e-17
0.294 	9.51309e-18
0.2947 	8.51537e-18
0.2954 	7.2437e-18
0.2961 	5.76656e-18
0.2968 	4.85953e-18
0.2975 	4.07637e-18
0.2982 	3.11466e-18
0.2989 	2.30631e-18
0.2996 	2.06027e-18
0.3003 	1.76415e-18
0.301 	1.40124e-18
0.3017 	1.15399e-18
0.3024 	9.70512e-19
0.3031 	7.37104e-19
0.3038 	5.16367e-19
0.3045 	4.60363e-19
0.3052 	3.96923e-19
0.3059 	3.14888e-19
0.3066 	2.53249e-19
0.3073 	2.12006e-19
0.308 	1.61458e-19
0.3087 	1.095e-19
0.3094 	9.48784e-20
0.3101 	8.2371e-20
0.3108 	6.53166e-20
0.3115 	5.12835e-20
0.3122 	4.26886e-20
0.3129 	3.26385e-20
0.3136 	2.20428e-20
0.3143 	1.79951e-20
0.315 	1.57334e-20
0.3157 	1.2476e-20
0.3164 	9.56242e-21
0.3171 	7.90916e-21
0.3178 	6.06647e-21
0.3185 	4.0901e-21
0.3192 	3.1289e-21
0.3199 	2.7317e-21
0.3206 	2.18655e-21
0.3213 	1.63656e-21
0.322 	1.3441e-21
0.3227 	1.0322e-21
0.3234 	6.9608e-22
0.3241 	4.96357e-22
0.3248 	4.33035e-22
0.3255 	3.50046e-22
0.3262 	2.5919e-22
0.3269 	2.08742e-22
0.3276 	1.6002e-22
0.3283 	1.08135e-22
0.329 	7.15194e-23
0.3297 	6.23925e-23
0.3304 	5.09725e-23
0.3311 	3.78327e-23
0.3318 	2.95343e-23
0.3325 	2.25144e-23
0.3332 	1.52798e-23
0.3339 	9.3408e-24
0.3346 	8.15278e-24
0.3353 	6.73757e-24
0.336 	5.01946e-24
0.3367 	3.80518e-24
0.3374 	2.8714e-24
0.3381 	1.96344e-24
0.3388 	1.11033e-24
0.3395 	9.70352e-25
0.3402 	8.12186e-25
0.3409 	6.08566e-25
0.3416 	4.49694e-25
0.3423 	3.35571e-25
0.343 	2.31569e-25
0.3437 	1.28933e-25
0.3444 	1.07603e-25
0.3451 	9.14982e-26
0.3458 	6.92231e-26
0.3465 	5.02507e-26
0.3472 	3.72235e-26
0.3479 	2.59971e-26
0.3486 	1.54034e-26
0.3493 	1.19092e-26
0.35 	1.03514e-26
0.3507 	7.96148e-27
0.3514 	5.76304e-27
0.3521 	4.26671e-27
0.3528 	3.0373e-27
0.3535 	1.98665e-27
0.3542 	1.4972e-27
0.3549 	1.31954e-27
0.3556 	1.04833e-27
0.3563 	7.67974e-28
0.357 	5.71347e-28
0.3577 	4.12648e-28
0.3584 	2.98867e-28
0.3591 	2.29286e-28
0.3598 	2.03907e-28
0.3605 	1.66143e-28
0.3612 	1.23425e-28
0.3619 	9.13754e-29
0.3626 	6.5101e-29
0.3633 	4.95166e-29
0.364 	3.79829e-29
0.3647 	3.37407e-29
0.3654 	2.78409e-29
0.3661 	2.0698e-29
0.3668 	1.50234e-29
0.3675 	1.02378e-29
0.3682 	7.74603e-30
0.3689 	5.65077e-30
0.3696 	5.00965e-30
0.3703 	4.17625e-30
0.371 	3.0865e-30
0.3717 	2.18638e-30
0.3724 	1.40633e-30
0.3731 	1.03869e-30
0.3738 	6.91882e-31
0.3745 	6.15926e-31
0.3752 	5.22559e-31
0.3759 	3.85663e-31
0.3766 	2.67492e-31
0.3773 	1.68046e-31
0.378 	1.17813e-31
0.3787 	7.34583e-32
0.3794 	6.34179e-32
0.3801 	5.5031e-32
0.3808 	4.07259e-32
0.3815 	2.7792e-32
0.3822 	1.73264e-32
0.3829 	1.14235e-32
0.3836 	7.02411e-33
0.3843 	5.59895e-33
0.385 	4.98495e-33
0.3857 	3.70488e-33
0.3864 	2.49636e-33
0.3871 	1.55017e-33
0.3878 	9.54719e-34
0.3885 	5.82619e-34
0.3892 	4.22146e-34
0.3899 	3.79248e-34
0.3906 	2.88976e-34
0.3913 	1.92578e-34
0.392 	1.19196e-34
0.3927 	6.76828e-35
0.3934 	4.08554e-35
0.3941 	2.62482e-35
0.3948 	2.38616e-35
0.3955 	1.87143e-35
0.3962 	1.24628e-35
0.3969 	7.61327e-36
0.3976 	3.90929e-36
0.3983 	2.32601e-36
0.399 	1.27397e-36
0.3997 	1.17817e-36
0.4004 	9.57715e-37
0.4011 	6.43769e-37
0.4018 	3.85425e-37
0.4025 	1.74327e-37
0.4032 	1.02412e-37
0.4039 	4.54012e-38
0.4046 	4.30384e-38
0.4053 	3.66525e-38
0.406 	2.49025e-38
0.4067 	1.46861e-38
0.4074 	5.64471e-39
0.4081 	3.29028e-39
0.4088 	1.10266e-39
0.4095 	1.08376e-39
0.4102 	9.82543e-40
0.4109 	6.75517e-40
0.4116 	3.95153e-40
0.4123 	1.41453e-40
0.413 	7.09794e-41
0.4137 	1.97804e-41
0.4144 	1.67455e-41
0.4151 	1.66002e-41
0.4158 	1.15606e-41
0.4165 	6.76491e-42
0.4172 	2.40808e-42
0.4179 	8.90651e-43
0.4186 	2.52554e-43
0.4193 	1.29245e-43
0.42 	1.46337e-43
0.4207 	1.03321e-43
0.4214 	6.11389e-44
0.4221 	2.20124e-44
0.4228 	5.04922e-45
0.4235 	1.54143e-45
0.4242 	3.47158e-46
0.4249 	4.38209e-46
0.4256 	3.36716e-46
0.4263 	2.03617e-46
0.427 	7.68212e-47
0.4277 	8.37133e-48
0.4284 	2.89738e-48
0.4291 	1.98782e-49
0.4298 	2.75603e-49
0.4305 	2.34298e-49
0.4312 	1.45742e-49
0.4319 	5.96713e-50
0.4326 	2.45162e-51
0.4333 	9.70862e-52
0.434 	2.25777e-53
0.4347 	3.27698e-53
0.4354 	3.08046e-53
0.4361 	1.97214e-53
0.4368 	8.87152e-54
0.4375 	2.01202e-55
0.4382 	8.92323e-56
0.4389 	1.40436e-57
0.4396 	2.09868e-57
0.4403 	2.17594e-57
0.441 	1.43045e-57
0.4417 	6.97524e-58
0.4424 	1.2473e-59
0.4431 	6.04409e-60
0.4438 	7.72468e-62
0.4445 	1.18197e-61
0.4452 	1.34859e-61
0.4459 	9.07981e-62
0.4466 	4.73205e-62
0.4473 	4.42565e-63
0.448 	4.33578e-64
0.4487 	3.50224e-65
0.4494 	8.62767e-66
0.4501 	1.0097e-65
0.4508 	6.9721e-66
0.4515 	3.92886e-66
0.4522 	1.03254e-66
0.4529 	2.3543e-67
0.4536 	5.12136e-68
0.4543 	1.00737e-68
0.455 	7.95572e-69
0.4557 	5.71186e-69
0.4564 	3.66692e-69
0.4571 	2.35142e-69
0.4578 	1.28271e-69
0.4585 	3.57339e-70
0.4592 	2.32094e-71
0.4599 	1.75517e-71
0.4606 	1.26719e-71
0.4613 	8.05872e-72
0.462 	5.22763e-72
0.4627 	2.85683e-72
0.4634 	9.62987e-73
0.4641 	1.07199e-74
0.4648 	4.40965e-77
0.4655 	4.59652e-76
0.4662 	5.31173e-75
0.4669 	3.67463e-75
0.4676 	1.95437e-75
0.4683 	1.00811e-75
0.469 	-2.14181e-75
0.4697 	-9.25835e-75
0.4704 	-8.24178e-75
0.4711 	-1.12536e-75
0.4718 	4.13562e-76
0.4725 	4.27659e-76
0.4732 	4.27835e-76
0.4739 	-6.42097e-76
0.4746 	-5.63585e-75
0.4753 	-6.34929e-75
0.476 	-1.35567e-75
0.4767 	4.24203e-76
0.4774 	4.19023e-76
0.4781 	4.19418e-76
0.4788 	1.46805e-76
0.4795 	-3.67512e-75
0.4802 	-5.31311e-75
0.4809 	-1.49131e-75
0.4816 	3.86843e-76
0.4823 	3.21314e-76
0.483 	3.16744e-76
0.4837 	3.17116e-76
0.4844 	-3.13488e-75
0.4851 	-5.7903e-75
0.4858 	-2.07282e-75
0.4865 	2.81634e-76
0.4872 	1.82578e-76
0.4879 	1.61391e-76
0.4886 	1.61731e-76
0.4893 	-3.15772e-75
0.49 	-7.38258e-75
0.4907 	-3.15777e-75
0.4914 	1.47741e-76
0.4921 	8.24315e-77
0.4928 	5.9224e-77
0.4935 	5.95125e-77
0.4942 	-2.74279e-75
0.4949 	-7.10211e-75
0.4956 	-3.98834e-75
0.4963 	5.75315e-77
0.497 	2.87154e-77
0.4977 	1.40613e-77
0.4984 	1.35588e-77
0.4991 	-1.96778e-75
0.4998 	-5.92997e-75
0.5005 	-4.23599e-75
0.5012 	-2.79544e-76
0.5019 	-6.42715e-78
0.5026 	-1.32525e-77
0.5033 	-1.39842e-77
0.504 	-1.20595e-75
0.5047 	-4.54216e-75
0.5054 	-4.06654e-75
0.5061 	-7.32041e-76
0.5068 	-1.95499e-77
0.5075 	-2.15819e-77
0.5082 	-2.15072e-77
0.5089 	-6.04166e-76
0.5096 	-3.32355e-75
0.5103 	-3.71183e-75
0.511 	-9.91962e-76
0.5117 	-2.07107e-77
0.5124 	-2.08809e-77
0.5131 	-2.04896e-77
0.5138 	-1.77543e-76
0.5145 	-2.38147e-75
0.5152 	-3.32575e-75
0.5159 	-1.1209e-75
0.5166 	-1.83586e-77
0.5173 	-1.81491e-77
0.518 	-1.7757e-77
0.5187 	-1.73518e-77
0.5194 	-1.70306e-75
0.5201 	-2.99966e-75
0.5208 	-1.18342e-75
0.5215 	-1.57716e-77
0.5222 	-1.55878e-77
0.5229 	-1.52815e-77
0.5236 	-1.49431e-77
0.5243 	-1.19423e-75
0.525 	-2.69524e-75
0.5257 	-1.1936e-75
0.5264 	-1.37704e-77
0.5271 	-1.39568e-77
0.5278 	-1.38587e-77
0.5285 	-1.36074e-77
0.5292 	-7.88067e-76
0.5299 	-1.99293e-75
0.5306 	-1.13202e-75
0.5313 	-1.29438e-77
0.532 	-1.36698e-77
0.5327 	-1.39278e-77
0.5334 	-1.37326e-77
0.5341 	-4.84466e-76
0.5348 	-1.42613e-75
0.5355 	-1.02231e-75
0.5362 	-8.02834e-77
0.5369 	-1.3393e-77
0.5376 	-1.35886e-77
0.5383 	-1.33783e-77
0.539 	-2.69854e-76
0.5397 	-9.88371e-76
0.5404 	-8.85387e-76
0.5411 	-1.66276e-76
0.5418 	-1.2127e-77
0.5425 	-1.20257e-77
0.5432 	-1.18029e-77
0.5439 	-1.25625e-76
0.5446 	-6.57618e-76
0.5453 	-7.33373e-76
0.546 	-2.0081e-76
0.5467 	-1.04902e-77
0.5474 	-1.0305e-77
0.5481 	-1.01004e-77
0.5488 	-3.71876e-77
0.5495 	-4.19081e-76
0.5502 	-5.8259e-76
0.5509 	-2.00136e-76
0.5516 	-8.73799e-78
0.5523 	-8.39832e-78
0.553 	-8.20443e-78
0.5537 	-8.01975e-78
0.5544 	-2.54801e-76
0.5551 	-4.44571e-76
0.5558 	-1.78281e-76
0.5565 	-6.94968e-78
0.5572 	-6.54497e-78
0.5579 	-6.33728e-78
0.5586 	-6.17926e-78
0.5593 	-1.47147e-76
0.56 	-3.26604e-76
0.5607 	-1.4671e-76
0.5614 	-5.27798e-78
0.5621 	-4.87667e-78
0.5628 	-4.65472e-78
0.5635 	-4.52654e-78
0.5642 	-8.01435e-77
0.5649 	-1.97842e-76
0.5656 	-1.13472e-76
0.5663 	-3.83104e-78
0.567 	-3.48907e-78
0.5677 	-3.27246e-78
0.5684 	-3.17405e-78
0.5691 	-4.06702e-77
0.5698 	-1.15761e-76
0.5705 	-8.33906e-77
0.5712 	-8.03508e-78
0.5719 	-2.40479e-78
0.5726 	-2.21074e-78
0.5733 	-2.13886e-78
0.574 	-1.8762e-77
0.5747 	-6.54363e-77
0.5754 	-5.86601e-77
0.5761 	-1.17961e-77
0.5768 	-1.60084e-78
0.5775 	-1.43956e-78
0.5782 	-1.38945e-78
0.5789 	-7.41502e-78
0.5796 	-3.57184e-77
0.5803 	-3.97061e-77
0.581 	-1.12729e-77
0.5817 	-1.0318e-78
0.5824 	-9.06337e-79
0.5831 	-8.72857e-79
0.5838 	-2.03915e-78
0.5845 	-1.88028e-77
0.5852 	-2.5963e-77
0.5859 	-9.11419e-78
0.5866 	-6.455e-79
0.5873 	-5.56957e-79
0.588 	-5.31856e-79
0.5887 	-5.10345e-79
0.5894 	-9.52258e-78
0.5901 	-1.64486e-77
0.5908 	-6.68775e-78
0.5915 	-3.9291e-79
0.5922 	-3.36893e-79
0.5929 	-3.15199e-79
0.5936 	-3.01855e-79
0.5943 	-4.62026e-78
0.595 	-1.01201e-77
0.5957 	-4.58753e-78
0.5964 	-2.33187e-79
0.5971 	-1.98966e-79
0.5978 	-1.82094e-79
0.5985 	-1.74073e-79
0.5992 	-2.13234e-78
0.5999 	-5.183e-78
0.6006 	-2.98736e-78
0.6013 	-1.35166e-79
0.602 	-1.14894e-79
0.6027 	-1.02726e-79
0.6034 	-9.80403e-80
0.6041 	-9.24377e-79
0.6048 	-2.58174e-78
0.6055 	-1.86348e-78
0.6062 	-1.94965e-79
0.6069 	-6.49379e-80
0.6076 	-5.66627e-80
0.6083 	-5.39957e-80
0.609 	-3.67343e-79
0.6097 	-1.24952e-78
0.6104 	-1.11992e-78
0.6111 	-2.31481e-79
0.6118 	-3.5947e-80
0.6125 	-3.05832e-80
0.6132 	-2.91013e-80
0.6139 	-1.2653e-79
0.6146 	-5.86636e-79
0.6153 	-6.50894e-79
0.616 	-1.87356e-79
0.6167 	-1.94936e-80
0.6174 	-1.61567e-80
0.6181 	-1.5352e-80
0.6188 	-3.13952e-80
0.6195 	-2.66466e-79
0.6202 	-3.66685e-79
0.6209 	-1.29773e-79
0.6216 	-1.03531e-80
0.6223 	-8.4247e-81
0.623 	-7.92352e-81
0.6237 	-7.49597e-81
0.6244 	-1.16605e-79
0.6251 	-2.0042e-79
0.6258 	-8.192e-80
0.6265 	-5.38003e-81
0.6272 	-4.36918e-81
0.6279 	-3.99598e-81
0.6286 	-3.77372e-81
0.6293 	-4.88315e-80
0.63 	-1.06238e-79
0.6307 	-4.8336e-80
0.6314 	-2.73031e-81
0.6321 	-2.2126e-81
0.6328 	-1.96451e-81
0.6335 	-1.85148e-81
0.6342 	-1.93657e-80
0.6349 	-4.66729e-80
0.6356 	-2.69548e-80
0.6363 	-1.34893e-81
0.637 	-1.0904e-81
0.6377 	-9.37898e-82
0.6384 	-8.81756e-82
0.6391 	-7.14992e-81
0.6398 	-1.97424e-80
0.6405 	-1.42589e-80
0.6412 	-1.54495e-81
0.6419 	-5.20358e-82
0.6426 	-4.3243e-82
0.6433 	-4.05277e-82
0.644 	-2.3853e-81
0.6447 	-7.97826e-81
0.6454 	-7.14636e-81
0.6461 	-1.49583e-81
0.6468 	-2.38847e-82
0.6475 	-1.91107e-82
0.6482 	-1.7839e-82
0.6489 	-6.76651e-82
0.6496 	-3.04851e-81
0.6503 	-3.37608e-81
0.651 	-9.77942e-82
0.6517 	-1.0453e-82
0.6524 	-8.01801e-83
0.6531 	-7.44587e-83
0.6538 	-1.36993e-82
0.6545 	-1.08687e-81
0.6552 	-1.49069e-81
0.6559 	-5.29384e-82
0.6566 	-4.31425e-83
0.6573 	-3.19628e-83
0.658 	-2.91155e-83
0.6587 	-2.66699e-83
0.6594 	-3.5559e-82
0.6601 	-6.08072e-82
0.6608 	-2.4899e-82
0.6615 	-1.65698e-83
0.6622 	-1.21414e-83
0.6629 	-1.05119e-83
0.6636 	-9.53265e-84
0.6643 	-1.04556e-82
0.665 	-2.25762e-82
0.6657 	-1.02792e-82
0.6664 	-5.82729e-84
0.6671 	-4.21805e-84
0.6678 	-3.44375e-84
0.6685 	-3.08277e-84
0.6692 	-2.69e-83
0.6699 	-6.41497e-83
0.6706 	-3.70262e-83
0.6713 	-1.84e-84
0.672 	-1.31444e-84
0.6727 	-1.00234e-84
0.6734 	-8.8237e-85
0.6741 	-5.8411e-84
0.6748 	-1.58785e-83
0.6755 	-1.14471e-83
0.6762 	-1.22817e-84
0.6769 	-3.58589e-85
0.6776 	-2.52452e-85
0.6783 	-2.17424e-85
0.679 	-1.0153e-84
0.6797 	-3.31241e-84
0.6804 	-2.95761e-84
0.6811 	-6.13872e-85
0.6818 	-8.29573e-86
0.6825 	-5.31524e-86
0.6832 	-4.44579e-86
0.6839 	-1.29164e-85
0.6846 	-5.5634e-85
0.6853 	-6.1318e-85
0.686 	-1.76239e-85
0.6867 	-1.55679e-86
0.6874 	-8.91319e-87
0.6881 	-7.1595e-87
0.6888 	-9.84061e-87
0.6895 	-7.01741e-86
0.6902 	-9.55865e-86
0.6909 	-3.36958e-86
0.6916 	-2.21391e-87
0.6923 	-1.14089e-87
0.693 	-8.3661e-88
0.6937 	-5.6813e-88
0.6944 	-5.87671e-87
0.6951 	-9.95105e-87
0.6958 	-4.04592e-87
0.6965 	-2.11617e-88
0.6972 	-1.048e-88
0.6979 	-6.24981e-89
0.6986 	-3.50649e-89
0.6993 	-2.33279e-89
0.7 	-1.58716e-89
