0 	1
0.0007 	1
0.0014 	1
0.0021 	1
0.0028 	1
0.0035 	1
0.0042 	1
0.0049 	1
0.0056 	1
0.0063 	1
0.007 	1
0.0077 	1
0.0084 	1
0.0091 	1
0.0098 	1
0.0105 	1
0.0112 	1
0.0119 	1
0.0126 	1
0.0133 	1
0.014 	1
0.0147 	1
0.0154 	1
0.0161 	1
0.0168 	1
0.0175 	1
0.0182 	1
0.0189 	1
0.0196 	1
0.0203 	1
0.021 	1
0.0217 	1
0.0224 	1
0.0231 	1
0.0238 	1
0.0245 	1
0.0252 	1
0.0259 	1
0.0266 	1
0.0273 	1
0.028 	1
0.0287 	1
0.0294 	1
0.0301 	1
0.0308 	1
0.0315 	1
0.0322 	1
0.0329 	1
0.0336 	1
0.0343 	1
0.035 	1
0.0357 	1
0.0364 	1
0.0371 	1
0.0378 	1
0.0385 	1
0.0392 	1
0.0399 	1
0.0406 	1
0.0413 	1
0.042 	1
0.0427 	1
0.0434 	1
0.0441 	1
0.0448 	1
0.0455 	1
0.0462 	1
0.0469 	1
0.0476 	1
0.0483 	1
0.049 	1
0.0497 	1
0.0504 	1
0.0511 	1
0.0518 	1
0.0525 	1
0.0532 	1
0.0539 	1
0.0546 	1
0.0553 	1
0.056 	1
0.0567 	1
0.0574 	1
0.0581 	1
0.0588 	1
0.0595 	1
0.0602 	1
0.0609 	1
0.0616 	1
0.0623 	1
0.063 	1
0.0637 	1
0.0644 	1
0.0651 	1
0.0658 	1
0.0665 	1
0.0672 	1
0.0679 	1
0.0686 	1
0.0693 	1
0.07 	1
0.0707 	1
0.0714 	1
0.0721 	1
0.0728 	1
0.0735 	1
0.0742 	1
0.0749 	1
0.0756 	1
0.0763 	1
0.077 	1
0.0777 	1
0.0784 	1
0.0791 	1
0.0798 	1
0.0805 	1
0.0812 	1
0.0819 	1
0.0826 	1
0.0833 	1
0.084 	1
0.0847 	1
0.0854 	1
0.0861 	1
0.0868 	1
0.0875 	1
0.0882 	1
0.0889 	1
0.0896 	1
0.0903 	1
0.091 	1
0.0917 	1
0.0924 	1
0.0931 	1
0.0938 	1
0.0945 	1
0.0952 	1
0.0959 	1
0.0966 	1
0.0973 	1
0.098 	1
0.0987 	1
0.0994 	1
0.1001 	1
0.1008 	1
0.1015 	1
0.1022 	1
0.1029 	1
0.1036 	1
0.1043 	1
0.105 	1
0.1057 	1
0.1064 	1
0.1071 	1
0.1078 	1
0.1085 	1
0.1092 	1
0.1099 	1
0.1106 	1
0.1113 	1
0.112 	1
0.1127 	1
0.1134 	1
0.1141 	1
0.1148 	1
0.1155 	1
0.1162 	1
0.1169 	1
0.1176 	1
0.1183 	1
0.119 	1
0.1197 	1
0.1204 	1
0.1211 	1
0.1218 	1
0.1225 	1
0.1232 	1
0.1239 	1
0.1246 	1
0.1253 	1
0.126 	1
0.1267 	1
0.1274 	1
0.1281 	1
0.1288 	1
0.1295 	1
0.1302 	1
0.1309 	1
0.1316 	1
0.1323 	1
0.133 	1
0.1337 	1
0.1344 	1
0.1351 	1
0.1358 	1
0.1365 	1
0.1372 	1
0.1379 	1
0.1386 	1
0.1393 	1
0.14 	1
0.1407 	1
0.1414 	1
0.1421 	1
0.1428 	1
0.1435 	1
0.1442 	1
0.1449 	1
0.1456 	1
0.1463 	1
0.147 	1
0.1477 	1
0.1484 	1
0.1491 	1
0.1498 	1
0.1505 	1
0.1512 	1
0.1519 	1
0.1526 	1
0.1533 	1
0.154 	1
0.1547 	1
0.1554 	1
0.1561 	1
0.1568 	1
0.1575 	1
0.1582 	1
0.1589 	1
0.1596 	1
0.1603 	1
0.161 	1
0.1617 	1
0.1624 	1
0.1631 	1
0.1638 	1
0.1645 	1
0.1652 	1
0.1659 	1
0.1666 	1
0.1673 	1
0.168 	1
0.1687 	1
0.1694 	1
0.1701 	1
0.1708 	1
0.1715 	1
0.1722 	1
0.1729 	1
0.1736 	1
0.1743 	1
0.175 	1
0.1757 	1
0.1764 	1
0.1771 	1
0.1778 	1
0.1785 	1
0.1792 	1
0.1799 	1
0.1806 	1
0.1813 	1
0.182 	1
0.1827 	1
0.1834 	1
0.1841 	1
0.1848 	1
0.1855 	1
0.1862 	1
0.1869 	1
0.1876 	1
0.1883 	1
0.189 	1
0.1897 	1
0.1904 	1
0.1911 	1
0.1918 	1
0.1925 	1
0.1932 	1
0.1939 	1
0.1946 	1
0.1953 	1
0.196 	1
0.1967 	1
0.1974 	1
0.1981 	1
0.1988 	1
0.1995 	1
0.2002 	1
0.2009 	1
0.2016 	1
0.2023 	1
0.203 	1
0.2037 	1
0.2044 	1
0.2051 	1
0.2058 	1
0.2065 	1
0.2072 	1
0.2079 	1
0.2086 	1
0.2093 	1
0.21 	1
0.2107 	1
0.2114 	1
0.2121 	1
0.2128 	1
0.2135 	1
0.2142 	1
0.2149 	1
0.2156 	1
0.2163 	1
0.217 	1
0.2177 	1
0.2184 	1
0.2191 	1
0.2198 	1
0.2205 	1
0.2212 	1
0.2219 	1
0.2226 	1
0.2233 	1
0.224 	1
0.2247 	1
0.2254 	1
0.2261 	1
0.2268 	1
0.2275 	1
0.2282 	1
0.2289 	1
0.2296 	1
0.2303 	1
0.231 	1
0.2317 	1
0.2324 	0.999999
0.2331 	0.999999
0.2338 	0.999999
0.2345 	0.999998
0.2352 	0.999998
0.2359 	0.999998
0.2366 	0.999993
0.2373 	0.999984
0.238 	0.999975
0.2387 	0.999974
0.2394 	0.999964
0.2401 	0.999956
0.2408 	0.999961
0.2415 	0.999918
0.2422 	0.999789
0.2429 	0.99966
0.2436 	0.999635
0.2443 	0.999516
0.245 	0.999369
0.2457 	0.999425
0.2464 	0.999013
0.2471 	0.996886
0.2478 	0.99476
0.2485 	0.994105
0.2492 	0.992536
0.2499 	0.990187
0.2506 	0.990921
0.2513 	0.990553
0.252 	0.969207
0.2527 	0.94786
0.2534 	0.937744
0.2541 	0.923563
0.2548 	0.898082
0.2555 	0.894448
0.2562 	0.899554
0.2569 	0.851677
0.2576 	0.799726
0.2583 	0.760489
0.259 	0.715455
0.2597 	0.633741
0.2604 	0.561571
0.2611 	0.496559
0.2618 	0.445674
0.2625 	0.398642
0.2632 	0.349302
0.2639 	0.298987
0.2646 	0.262802
0.2653 	0.2147
0.266 	0.150709
0.2667 	0.117648
0.2674 	0.101769
0.2681 	0.0807759
0.2688 	0.0400657
0.2695 	0.0440335
0.2702 	0.0425158
0.2709 	0.0272842
0.2716 	0.0189247
0.2723 	0.017437
0.273 	0.0155098
0.2737 	0.00259484
0.2744 	0.0024419
0.2751 	0.00299909
0.2758 	0.00192582
0.2765 	0.00122487
0.2772 	0.00119405
0.2779 	0.00116323
0.2786 	0.000240922
0.2793 	3.41932e-05
0.28 	5.08512e-05
0.2807 	3.33442e-05
0.2814 	1.95663e-05
0.2821 	1.94607e-05
0.2828 	1.93552e-05
0.2835 	6.25074e-06
0.2842 	8.17379e-08
0.2849 	1.2759e-07
0.2856 	9.44728e-08
0.2863 	5.14965e-08
0.287 	5.14453e-08
0.2877 	5.13942e-08
0.2884 	2.31345e-08
0.2891 	3.8323e-11
0.2898 	5.59521e-11
0.2905 	4.8541e-11
0.2912 	3.11137e-11
0.2919 	2.97302e-11
0.2926 	2.95806e-11
0.2933 	2.13704e-11
0.294 	1.0193e-11
0.2947 	1.01228e-11
0.2954 	1.0097e-11
0.2961 	1.01045e-11
0.2968 	9.81989e-12
0.2975 	9.45564e-12
0.2982 	9.19825e-12
0.2989 	9.08187e-12
0.2996 	8.67349e-12
0.3003 	8.41563e-12
0.301 	8.35845e-12
0.3017 	8.05361e-12
0.3024 	7.61118e-12
0.3031 	7.21327e-12
0.3038 	6.98552e-12
0.3045 	6.39987e-12
0.3052 	5.88496e-12
0.3059 	5.54692e-12
0.3066 	5.19776e-12
0.3073 	4.83751e-12
0.308 	4.47793e-12
0.3087 	4.13377e-12
0.3094 	3.76869e-12
0.3101 	3.38761e-12
0.3108 	2.92023e-12
0.3115 	2.54653e-12
0.3122 	2.34145e-12
0.3129 	2.13637e-12
0.3136 	1.79637e-12
0.3143 	1.64708e-12
0.315 	1.55393e-12
0.3157 	1.23312e-12
0.3164 	9.63654e-13
0.3171 	8.82463e-13
0.3178 	8.01273e-13
0.3185 	6.04245e-13
0.3192 	5.23913e-13
0.3199 	5.29125e-13
0.3206 	4.18524e-13
0.3213 	2.96243e-13
0.322 	2.7304e-13
0.3227 	2.49836e-13
0.3234 	1.79254e-13
0.3241 	1.32243e-13
0.3248 	1.38573e-13
0.3255 	1.15447e-13
0.3262 	8.05396e-14
0.3269 	7.26822e-14
0.3276 	6.69053e-14
0.3283 	5.02538e-14
0.329 	3.18275e-14
0.3297 	3.21298e-14
0.3304 	2.79319e-14
0.3311 	2.03588e-14
0.3318 	1.75267e-14
0.3325 	1.59876e-14
0.3332 	1.28581e-14
0.3339 	7.78263e-15
0.3346 	7.45018e-15
0.3353 	6.49866e-15
0.336 	4.72171e-15
0.3367 	3.83739e-15
0.3374 	3.44895e-15
0.3381 	2.86636e-15
0.3388 	1.53824e-15
0.3395 	1.50051e-15
0.3402 	1.35233e-15
0.3409 	9.28037e-16
0.3416 	6.81274e-16
0.3423 	6.12037e-16
0.343 	5.31106e-16
0.3437 	1.98926e-16
0.3444 	1.96716e-16
0.3451 	2.06549e-16
0.3458 	1.36315e-16
0.3465 	8.89496e-17
0.3472 	8.27459e-17
0.3479 	7.65422e-17
0.3486 	2.23618e-17
0.3493 	1.33114e-17
0.35 	1.79908e-17
0.3507 	1.18851e-17
0.3514 	7.04923e-18
0.3521 	6.86928e-18
0.3528 	6.68932e-18
0.3535 	2.28532e-18
0.3542 	3.55198e-19
0.3549 	5.42023e-19
0.3556 	4.01238e-19
0.3563 	2.19733e-19
0.357 	2.18664e-19
0.3577 	2.17595e-19
0.3584 	9.80801e-20
0.3591 	2.27837e-21
0.3598 	3.64284e-21
0.3605 	3.04295e-21
0.3612 	1.65731e-21
0.3619 	1.55543e-21
0.3626 	1.55229e-21
0.3633 	8.94821e-22
0.364 	7.43754e-24
0.3647 	8.82356e-24
0.3654 	7.73607e-24
0.3661 	4.79346e-24
0.3668 	3.97203e-24
0.3675 	3.72907e-24
0.3682 	2.6791e-24
0.3689 	5.87624e-25
0.3696 	6.19421e-25
0.3703 	5.51338e-25
0.371 	3.50081e-25
0.3717 	2.63547e-25
0.3724 	2.40746e-25
0.3731 	1.90982e-25
0.3738 	3.90643e-26
0.3745 	5.31334e-26
0.3752 	5.7107e-26
0.3759 	3.58416e-26
0.3766 	2.47542e-26
0.3773 	2.38444e-26
0.378 	2.20592e-26
0.3787 	2.77185e-27
0.3794 	2.39961e-27
0.3801 	3.16476e-27
0.3808 	2.02275e-27
0.3815 	1.28599e-27
0.3822 	1.27866e-27
0.3829 	1.27133e-27
0.3836 	2.568e-28
0.3843 	2.84611e-29
0.385 	4.33087e-29
0.3857 	2.84067e-29
0.3864 	1.66968e-29
0.3871 	1.66908e-29
0.3878 	1.66847e-29
0.3885 	5.33922e-30
0.3892 	4.41588e-32
0.3899 	6.92016e-32
0.3906 	5.1313e-32
0.3913 	2.80585e-32
0.392 	2.80596e-32
0.3927 	2.80607e-32
0.3934 	1.25246e-32
0.3941 	5.55483e-36
0.3948 	8.98251e-36
0.3955 	7.5137e-36
0.3962 	4.08629e-36
0.3969 	3.84169e-36
0.3976 	3.8419e-36
0.3983 	2.20353e-36
0.399 	1.97047e-40
0.3997 	3.30349e-40
0.4004 	3.11312e-40
0.4011 	1.7802e-40
0.4018 	1.49464e-40
0.4025 	1.49472e-40
0.4032 	1.04737e-40
0.4039 	6.83892e-45
0.4046 	1.19586e-44
0.4053 	1.26901e-44
0.406 	7.5708e-45
0.4067 	5.74272e-45
0.4074 	5.74302e-45
0.4081 	4.75391e-45
0.4088 	2.37834e-49
0.4095 	4.37118e-49
0.4102 	5.22529e-49
0.4109 	3.23258e-49
0.4116 	2.2363e-49
0.4123 	2.23641e-49
0.413 	2.13516e-49
0.4137 	1.42447e-50
0.4144 	1.62095e-53
0.4151 	2.18545e-53
0.4158 	1.3952e-53
0.4165 	8.87207e-54
0.4172 	8.87252e-54
0.4179 	8.87297e-54
0.4186 	1.69383e-54
0.4193 	6.02862e-58
0.42 	9.18712e-58
0.4207 	6.02878e-58
0.4214 	3.54729e-58
0.4221 	3.54747e-58
0.4228 	3.54765e-58
0.4235 	1.12815e-58
0.4242 	2.22595e-62
0.4249 	3.48611e-62
0.4256 	2.58602e-62
0.4263 	1.41591e-62
0.427 	1.41597e-62
0.4277 	1.41604e-62
0.4284 	6.30136e-63
0.4291 	8.21488e-67
0.4298 	1.32721e-66
0.4305 	1.11044e-66
0.4312 	6.04661e-67
0.4319 	5.68557e-67
0.4326 	5.68575e-67
0.4333 	3.25164e-67
0.434 	3.17608e-71
0.4347 	5.3174e-71
0.4354 	5.01087e-71
0.4361 	2.86847e-71
0.4368 	2.40938e-71
0.4375 	2.40935e-71
0.4382 	1.68333e-71
0.4389 	1.46553e-75
0.4396 	2.55593e-75
0.4403 	2.71098e-75
0.441 	1.61891e-75
0.4417 	1.22879e-75
0.4424 	1.22864e-75
0.4431 	1.01396e-75
0.4438 	9.17332e-80
0.4445 	1.29548e-79
0.4452 	1.45639e-79
0.4459 	1.07424e-79
0.4466 	8.82274e-80
0.4473 	8.80502e-80
0.448 	8.35935e-80
0.4487 	4.31954e-81
0.4494 	-1.17487e-79
0.4501 	-2.06928e-79
0.4508 	-8.25477e-80
0.4515 	-2.68835e-81
0.4522 	-2.96417e-81
0.4529 	-3.23999e-81
0.4536 	-4.11634e-81
0.4543 	-1.88521e-79
0.455 	-4.22966e-79
0.4557 	-1.89562e-79
0.4564 	-6.24844e-81
0.4571 	-6.58637e-81
0.4578 	-6.92431e-81
0.4585 	-8.08801e-81
0.4592 	-2.32725e-79
0.4599 	-5.81383e-79
0.4606 	-3.33353e-79
0.4613 	-1.07203e-80
0.462 	-1.10411e-80
0.4627 	-1.1362e-80
0.4634 	-1.24867e-80
0.4641 	-2.33151e-79
0.4648 	-6.72887e-79
0.4655 	-4.85153e-79
0.4662 	-4.64307e-80
0.4669 	-1.53027e-80
0.4676 	-1.55237e-80
0.4683 	-1.63255e-80
0.469 	-1.90499e-79
0.4697 	-6.75644e-79
0.4704 	-6.06672e-79
0.4711 	-1.22111e-79
0.4718 	-1.83366e-80
0.4725 	-1.8407e-80
0.4732 	-1.87596e-80
0.4739 	-1.21736e-79
0.4746 	-5.99036e-79
0.4753 	-6.67239e-79
0.476 	-1.89977e-79
0.4767 	-1.94787e-80
0.4774 	-1.93966e-80
0.4781 	-1.93687e-80
0.4788 	-4.98594e-80
0.4795 	-4.74337e-79
0.4802 	-6.56128e-79
0.4809 	-2.31199e-79
0.4816 	-1.86414e-80
0.4823 	-1.84464e-80
0.483 	-1.82348e-80
0.4837 	-1.77486e-80
0.4844 	-3.37873e-79
0.4851 	-5.84043e-79
0.4858 	-2.38488e-79
0.4865 	-1.62591e-80
0.4872 	-1.60097e-80
0.4879 	-1.57602e-80
0.4886 	-1.48566e-80
0.4893 	-2.17299e-79
0.49 	-4.7522e-79
0.4907 	-2.16428e-79
0.4914 	-1.30403e-80
0.4921 	-1.27905e-80
0.4928 	-1.25408e-80
0.4935 	-1.15731e-80
0.4942 	-1.26159e-79
0.4949 	-3.05062e-79
0.4956 	-1.76579e-79
0.4963 	-9.68695e-81
0.497 	-9.47285e-81
0.4977 	-9.25874e-81
0.4984 	-8.44916e-81
0.4991 	-6.57365e-80
0.4998 	-1.81473e-79
0.5005 	-1.31401e-79
0.5012 	-1.50064e-80
0.5019 	-6.54194e-81
0.5026 	-6.37864e-81
0.5033 	-5.81354e-81
0.504 	-3.02425e-80
0.5047 	-1.00423e-79
0.5054 	-9.01235e-80
0.5061 	-1.94636e-80
0.5068 	-4.2339e-81
0.5075 	-4.12074e-81
0.5082 	-3.78659e-81
0.5089 	-1.17792e-80
0.5096 	-5.18429e-80
0.5103 	-5.74298e-80
0.511 	-1.70474e-80
0.5117 	-2.57904e-81
0.5124 	-2.50683e-81
0.5131 	-2.34283e-81
0.5138 	-3.39899e-81
0.5145 	-2.50127e-80
0.5152 	-3.42197e-80
0.5159 	-1.24102e-80
0.5166 	-1.4842e-81
0.5173 	-1.44136e-81
0.518 	-1.3807e-81
0.5187 	-1.04264e-81
0.5194 	-1.12849e-80
0.5201 	-1.91662e-80
0.5208 	-7.99773e-81
0.5215 	-8.09603e-82
0.5222 	-7.858e-82
0.5229 	-7.61997e-82
0.5236 	-5.73688e-82
0.5243 	-4.75621e-81
0.525 	-1.01349e-80
0.5257 	-4.6959e-81
0.5264 	-4.19808e-82
0.5271 	-4.07359e-82
0.5278 	-3.94909e-82
0.5285 	-3.03371e-82
0.5292 	-1.86637e-81
0.5299 	-4.36133e-81
0.5306 	-2.55301e-81
0.5313 	-2.07463e-82
0.532 	-2.01306e-82
0.5327 	-1.95148e-82
0.5334 	-1.54365e-82
0.5341 	-6.76966e-82
0.5348 	-1.78305e-81
0.5355 	-1.29853e-81
0.5362 	-1.77772e-82
0.5369 	-9.50438e-83
0.5376 	-9.21528e-83
0.5383 	-7.56399e-83
0.539 	-2.23652e-82
0.5397 	-6.93289e-82
0.5404 	-6.22373e-82
0.5411 	-1.46041e-82
0.5418 	-4.29594e-83
0.5425 	-4.16669e-83
0.5432 	-3.57131e-83
0.5439 	-6.51748e-83
0.5446 	-2.56515e-82
0.5453 	-2.82602e-82
0.546 	-8.83512e-83
0.5467 	-1.86232e-83
0.5474 	-1.80716e-83
0.5481 	-1.62547e-83
0.5488 	-1.53799e-83
0.5495 	-9.03124e-83
0.5502 	-1.22081e-82
0.5509 	-4.5939e-83
0.5516 	-7.75615e-84
0.5523 	-7.53083e-84
0.553 	-7.13487e-84
0.5537 	-4.20816e-84
0.5544 	-3.02325e-83
0.5551 	-5.03436e-83
0.5558 	-2.16106e-83
0.5565 	-3.10815e-84
0.5572 	-3.01988e-84
0.5579 	-2.93162e-84
0.5586 	-1.79779e-84
0.5593 	-9.60466e-84
0.56 	-1.98746e-83
0.5607 	-9.42087e-84
0.5614 	-1.20017e-84
0.5621 	-1.16695e-84
0.5628 	-1.13373e-84
0.5635 	-7.44007e-85
0.5642 	-2.8856e-84
0.5649 	-6.49e-84
0.5656 	-3.85758e-84
0.5663 	-4.47146e-85
0.567 	-4.35111e-85
0.5677 	-4.23077e-85
0.5684 	-2.98103e-85
0.5691 	-8.14688e-85
0.5698 	-2.03757e-84
0.5705 	-1.49643e-84
0.5712 	-2.49678e-85
0.5719 	-1.56734e-85
0.5726 	-1.52532e-85
0.5733 	-1.15607e-85
0.574 	-2.13664e-85
0.5747 	-6.15213e-85
0.5754 	-5.53196e-85
0.5761 	-1.43506e-85
0.5768 	-5.46059e-86
0.5775 	-5.31893e-86
0.5782 	-4.33919e-86
0.5789 	-5.08811e-86
0.5796 	-1.78634e-85
0.5803 	-1.95735e-85
0.581 	-6.52995e-86
0.5817 	-1.842e-86
0.5824 	-1.79584e-86
0.5831 	-1.5766e-86
0.5838 	-1.04365e-86
0.5845 	-4.98576e-86
0.5852 	-6.65081e-86
0.5859 	-2.62323e-86
0.5866 	-6.02206e-87
0.5873 	-5.87652e-87
0.588 	-5.54707e-87
0.5887 	-2.6067e-87
0.5894 	-1.33624e-86
0.5901 	-2.176e-86
0.5908 	-9.68693e-87
0.5915 	-1.9099e-87
0.5922 	-1.86544e-87
0.5929 	-1.82098e-87
0.5936 	-9.3628e-88
0.5943 	-3.43268e-87
0.595 	-6.8703e-87
0.5957 	-3.35384e-87
0.5964 	-5.88119e-88
0.5971 	-5.74947e-88
0.5978 	-5.61776e-88
0.5985 	-3.24368e-88
0.5992 	-8.42682e-88
0.5999 	-1.81584e-87
0.6006 	-1.10112e-87
0.6013 	-1.75978e-88
0.602 	-1.7219e-88
0.6027 	-1.68402e-88
0.6034 	-1.08494e-88
0.6041 	-1.96698e-88
0.6048 	-4.64827e-88
0.6055 	-3.45312e-88
0.6062 	-7.07403e-89
0.6069 	-5.01479e-89
0.6076 	-4.90895e-89
0.6083 	-3.50728e-89
0.609 	-4.32862e-89
0.6097 	-1.15241e-88
0.6104 	-1.03953e-88
0.6111 	-3.02345e-89
0.6118 	-1.42124e-89
0.6125 	-1.39248e-89
0.6132 	-1.09698e-89
0.6139 	-8.84304e-90
0.6146 	-2.76633e-89
0.6153 	-3.01505e-89
0.616 	-1.08603e-89
0.6167 	-3.92228e-90
0.6174 	-3.84626e-90
0.6181 	-3.32313e-90
0.6188 	-1.62495e-90
0.6195 	-6.42593e-90
0.6202 	-8.44869e-90
0.6209 	-3.52587e-90
0.6216 	-1.05472e-90
0.6223 	-1.03515e-90
0.623 	-9.76022e-91
0.6237 	-3.76077e-91
0.6244 	-1.44301e-90
0.6251 	-2.29232e-90
0.6258 	-1.06637e-90
0.6265 	-2.76515e-91
0.6272 	-2.71605e-91
0.6279 	-2.66696e-91
0.6286 	-1.18683e-91
0.6293 	-3.12766e-91
0.63 	-6.03292e-91
0.6307 	-3.05192e-91
0.6314 	-7.07161e-92
0.6321 	-6.95152e-92
0.6328 	-6.83143e-92
0.6335 	-3.56832e-92
0.6342 	-6.52717e-92
0.6349 	-1.34266e-91
0.6356 	-8.34257e-92
0.6363 	-1.76507e-92
0.637 	-1.73641e-92
0.6377 	-1.70776e-92
0.6384 	-1.02824e-92
0.6391 	-1.30658e-92
0.6398 	-2.90816e-92
0.6405 	-2.19133e-92
0.6412 	-5.4714e-93
0.6419 	-4.23515e-93
0.6426 	-4.1684e-93
0.6433 	-2.85177e-93
0.644 	-2.49352e-93
0.6447 	-6.12927e-93
0.6454 	-5.55418e-93
0.6461 	-1.82096e-93
0.6468 	-1.00909e-93
0.6475 	-9.93902e-94
0.6482 	-7.63622e-94
0.6489 	-4.49072e-94
0.6496 	-1.25658e-93
0.6503 	-1.3626e-93
0.651 	-5.33312e-94
0.6517 	-2.34976e-94
0.6524 	-2.316e-94
0.6531 	-1.97895e-94
0.6538 	-7.48972e-95
0.6545 	-2.50444e-94
0.6552 	-3.24319e-94
0.6559 	-1.44015e-94
0.6566 	-5.34978e-95
0.6573 	-5.27642e-95
0.658 	-4.97299e-95
0.6587 	-1.61802e-95
0.6594 	-4.8483e-95
0.6601 	-7.50301e-95
0.6608 	-3.66449e-95
0.6615 	-1.19135e-95
0.6622 	-1.17576e-95
0.6629 	-1.16017e-95
0.6636 	-4.59762e-96
0.6643 	-9.10457e-96
0.665 	-1.68971e-95
0.6657 	-8.89233e-96
0.6664 	-2.59597e-96
0.6671 	-2.56355e-96
0.6678 	-2.53113e-96
0.6685 	-1.22353e-96
0.6692 	-1.65535e-96
0.6699 	-3.24776e-96
0.6706 	-2.07313e-96
0.6713 	-5.53711e-97
0.672 	-5.47112e-97
0.6727 	-5.40513e-97
0.6734 	-3.09271e-97
0.6741 	-2.90564e-97
0.6748 	-6.09573e-97
0.6755 	-4.66652e-97
0.6762 	-1.38959e-97
0.6769 	-1.14334e-97
0.6776 	-1.13019e-97
0.6783 	-7.48814e-98
0.679 	-4.90278e-98
0.6797 	-1.11699e-97
0.6804 	-1.01774e-97
0.6811 	-3.73997e-98
0.6818 	-2.34041e-98
0.6825 	-2.31474e-98
0.6832 	-1.74631e-98
0.6839 	-7.89785e-99
0.6846 	-1.99763e-98
0.6853 	-2.15616e-98
0.686 	-9.15629e-99
0.6867 	-4.69436e-99
0.6874 	-4.64523e-99
0.6881 	-3.93789e-99
0.6888 	-1.20058e-99
0.6895 	-3.48495e-99
0.6902 	-4.44638e-99
0.6909 	-2.10047e-99
0.6916 	-9.22939e-100
0.6923 	-9.13724e-100
0.693 	-8.61069e-100
0.6937 	-2.42965e-100
0.6944 	-5.92622e-100
0.6951 	-8.93937e-100
0.6958 	-4.58467e-100
0.6965 	-1.78013e-100
0.6972 	-1.76577e-100
0.6979 	-1.75142e-100
0.6986 	-8.154e-101
0.6993 	-1.64336e-100
0.7 	-2.97179e-100
