0 	1
0.0007 	1
0.0014 	1
0.0021 	1
0.0028 	1
0.0035 	1
0.0042 	1
0.0049 	1
0.0056 	1
0.0063 	1
0.007 	1
0.0077 	1
0.0084 	1
0.0091 	1
0.0098 	1
0.0105 	1
0.0112 	1
0.0119 	1
0.0126 	1
0.0133 	1
0.014 	1
0.0147 	1
0.0154 	1
0.0161 	1
0.0168 	1
0.0175 	1
0.0182 	1
0.0189 	1
0.0196 	1
0.0203 	1
0.021 	1
0.0217 	1
0.0224 	1
0.0231 	1
0.0238 	1
0.0245 	1
0.0252 	1
0.0259 	1
0.0266 	1
0.0273 	1
0.028 	1
0.0287 	1
0.0294 	1
0.0301 	1
0.0308 	1
0.0315 	1
0.0322 	1
0.0329 	1
0.0336 	1
0.0343 	1
0.035 	1
0.0357 	1
0.0364 	1
0.0371 	1
0.0378 	1
0.0385 	1
0.0392 	1
0.0399 	1
0.0406 	1
0.0413 	1
0.042 	1
0.0427 	1
0.0434 	1
0.0441 	1
0.0448 	1
0.0455 	1
0.0462 	1
0.0469 	1
0.0476 	1
0.0483 	1
0.049 	1
0.0497 	1
0.0504 	1
0.0511 	1
0.0518 	1
0.0525 	1
0.0532 	1
0.0539 	1
0.0546 	1
0.0553 	1
0.056 	1
0.0567 	1
0.0574 	1
0.0581 	1
0.0588 	1
0.0595 	1
0.0602 	1
0.0609 	1
0.0616 	1
0.0623 	1
0.063 	1
0.0637 	1
0.0644 	1
0.0651 	1
0.0658 	1
0.0665 	1
0.0672 	1
0.0679 	1
0.0686 	1
0.0693 	1
0.07 	1
0.0707 	1
0.0714 	1
0.0721 	1
0.0728 	1
0.0735 	1
0.0742 	1
0.0749 	1
0.0756 	1
0.0763 	1
0.077 	1
0.0777 	1
0.0784 	1
0.0791 	1
0.0798 	1
0.0805 	1
0.0812 	1
0.0819 	1
0.0826 	1
0.0833 	1
0.084 	1
0.0847 	1
0.0854 	1
0.0861 	1
0.0868 	1
0.0875 	1
0.0882 	1
0.0889 	1
0.0896 	1
0.0903 	1
0.091 	1
0.0917 	1
0.0924 	1
0.0931 	1
0.0938 	1
0.0945 	1
0.0952 	1
0.0959 	1
0.0966 	1
0.0973 	1
0.098 	1
0.0987 	1
0.0994 	1
0.1001 	1
0.1008 	1
0.1015 	1
0.1022 	1
0.1029 	1
0.1036 	1
0.1043 	1
0.105 	1
0.1057 	1
0.1064 	1
0.1071 	1
0.1078 	1
0.1085 	1
0.1092 	1
0.1099 	1
0.1106 	1
0.1113 	1
0.112 	1
0.1127 	1
0.1134 	1
0.1141 	1
0.1148 	1
0.1155 	1
0.1162 	1
0.1169 	1
0.1176 	1
0.1183 	1
0.119 	1
0.1197 	1
0.1204 	1
0.1211 	1
0.1218 	1
0.1225 	1
0.1232 	1
0.1239 	1
0.1246 	1
0.1253 	1
0.126 	1
0.1267 	1
0.1274 	1
0.1281 	1
0.1288 	1
0.1295 	1
0.1302 	1
0.1309 	1
0.1316 	1
0.1323 	1
0.133 	1
0.1337 	1
0.1344 	1
0.1351 	1
0.1358 	1
0.1365 	1
0.1372 	1
0.1379 	1
0.1386 	1
0.1393 	1
0.14 	1
0.1407 	1
0.1414 	1
0.1421 	1
0.1428 	1
0.1435 	1
0.1442 	1
0.1449 	1
0.1456 	1
0.1463 	1
0.147 	1
0.1477 	1
0.1484 	1
0.1491 	1
0.1498 	1
0.1505 	1
0.1512 	1
0.1519 	1
0.1526 	1
0.1533 	1
0.154 	1
0.1547 	1
0.1554 	1
0.1561 	1
0.1568 	1
0.1575 	1
0.1582 	1
0.1589 	1
0.1596 	1
0.1603 	1
0.161 	1
0.1617 	1
0.1624 	1
0.1631 	1
0.1638 	1
0.1645 	1
0.1652 	1
0.1659 	1
0.1666 	1
0.1673 	1
0.168 	1
0.1687 	1
0.1694 	1
0.1701 	1
0.1708 	1
0.1715 	1
0.1722 	1
0.1729 	1
0.1736 	1
0.1743 	1
0.175 	1
0.1757 	1
0.1764 	0.999999
0.1771 	0.999995
0.1778 	0.99999
0.1785 	0.999985
0.1792 	0.999977
0.1799 	0.999968
0.1806 	0.999958
0.1813 	0.999941
0.182 	0.999833
0.1827 	0.999714
0.1834 	0.99958
0.1841 	0.999398
0.1848 	0.999167
0.1855 	0.998931
0.1862 	0.998694
0.1869 	0.996882
0.1876 	0.994772
0.1883 	0.99225
0.189 	0.989122
0.1897 	0.984905
0.1904 	0.980616
0.1911 	0.976273
0.1918 	0.95303
0.1925 	0.924009
0.1932 	0.891707
0.1939 	0.854251
0.1946 	0.7979
0.1953 	0.740739
0.196 	0.6825
0.1967 	0.622094
0.1974 	0.560471
0.1981 	0.498109
0.1988 	0.435505
0.1995 	0.369774
0.2002 	0.303301
0.2009 	0.234974
0.2016 	0.180168
0.2023 	0.138883
0.203 	0.100984
0.2037 	0.0635629
0.2044 	0.051248
0.2051 	0.0407388
0.2058 	0.0294762
0.2065 	0.0199311
0.2072 	0.0134776
0.2079 	0.00801164
0.2086 	0.00290211
0.2093 	0.0015697
0.21 	0.00126743
0.2107 	0.000913061
0.2114 	0.000589239
0.2121 	0.000377432
0.2128 	0.000205806
0.2135 	6.17284e-05
0.2142 	9.23301e-06
0.2149 	7.61707e-06
0.2156 	5.61435e-06
0.2163 	3.60317e-06
0.217 	2.32005e-06
0.2177 	1.25772e-06
0.2184 	4.63418e-07
0.2191 	6.07052e-08
0.2198 	4.95836e-08
0.2205 	3.77593e-08
0.2212 	2.5654e-08
0.2219 	1.87349e-08
0.2226 	1.23729e-08
0.2233 	6.36257e-09
0.224 	2.34613e-09
0.2247 	1.91871e-09
0.2254 	1.48149e-09
0.2261 	1.0369e-09
0.2268 	7.61804e-10
0.2275 	5.32166e-10
0.2282 	2.98748e-10
0.2289 	1.11528e-10
0.2296 	9.37012e-11
0.2303 	7.55277e-11
0.231 	5.68927e-11
0.2317 	4.37803e-11
0.2324 	3.37378e-11
0.2331 	2.37592e-11
0.2338 	1.43934e-11
0.2345 	1.29961e-11
0.2352 	1.15806e-11
0.2359 	1.01194e-11
0.2366 	8.92304e-12
0.2373 	7.99142e-12
0.238 	7.05154e-12
0.2387 	6.11059e-12
0.2394 	5.65993e-12
0.2401 	5.24382e-12
0.2408 	4.80874e-12
0.2415 	4.41112e-12
0.2422 	4.08092e-12
0.2429 	3.74518e-12
0.2436 	3.40753e-12
0.2443 	3.15131e-12
0.245 	2.91731e-12
0.2457 	2.66915e-12
0.2464 	2.43215e-12
0.2471 	2.23607e-12
0.2478 	2.03999e-12
0.2485 	1.84392e-12
0.2492 	1.68062e-12
0.2499 	1.53552e-12
0.2506 	1.38367e-12
0.2513 	1.23332e-12
0.252 	1.11717e-12
0.2527 	1.0025e-12
0.2534 	8.89562e-13
0.2541 	7.94637e-13
0.2548 	7.17724e-13
0.2555 	6.38302e-13
0.2562 	5.57876e-13
0.2569 	4.9764e-13
0.2576 	4.39774e-13
0.2583 	3.8365e-13
0.259 	3.35124e-13
0.2597 	3.00277e-13
0.2604 	2.6469e-13
0.2611 	2.28548e-13
0.2618 	2.00615e-13
0.2625 	1.75144e-13
0.2632 	1.50699e-13
0.2639 	1.28444e-13
0.2646 	1.14217e-13
0.2653 	9.98012e-14
0.266 	8.51338e-14
0.2667 	7.33661e-14
0.2674 	6.32296e-14
0.2681 	5.36202e-14
0.2688 	4.43258e-14
0.2695 	3.9126e-14
0.2702 	3.38847e-14
0.2709 	2.85399e-14
0.2716 	2.40677e-14
0.2723 	2.0468e-14
0.273 	1.70794e-14
0.2737 	1.37154e-14
0.2744 	1.19355e-14
0.2751 	1.02713e-14
0.2758 	8.57019e-15
0.2765 	7.07576e-15
0.2772 	5.95345e-15
0.2779 	4.89954e-15
0.2786 	3.86794e-15
0.2793 	3.28101e-15
0.28 	2.81536e-15
0.2807 	2.33864e-15
0.2814 	1.89737e-15
0.2821 	1.58606e-15
0.2828 	1.29321e-15
0.2835 	1.01204e-15
0.2842 	8.34831e-16
0.2849 	7.15372e-16
0.2856 	5.93759e-16
0.2863 	4.74829e-16
0.287 	3.95446e-16
0.2877 	3.20276e-16
0.2884 	2.49836e-16
0.2891 	2.00212e-16
0.2898 	1.71403e-16
0.2905 	1.42207e-16
0.2912 	1.12856e-16
0.2919 	9.30618e-17
0.2926 	7.48084e-17
0.2933 	5.81919e-17
0.294 	4.51686e-17
0.2947 	3.86128e-17
0.2954 	3.19914e-17
0.2961 	2.53206e-17
0.2968 	2.05064e-17
0.2975 	1.63142e-17
0.2982 	1.26205e-17
0.2989 	9.42175e-18
0.2996 	8.03809e-18
0.3003 	6.64453e-18
0.301 	5.23779e-18
0.3017 	4.15681e-18
0.3024 	3.26339e-18
0.3031 	2.50351e-18
0.3038 	1.77904e-18
0.3045 	1.51474e-18
0.3052 	1.24926e-18
0.3059 	9.80833e-19
0.3066 	7.61693e-19
0.3073 	5.91842e-19
0.308 	4.4782e-19
0.3087 	3.06493e-19
0.3094 	2.54728e-19
0.3101 	2.09761e-19
0.3108 	1.64248e-19
0.3115 	1.2481e-19
0.3122 	9.6309e-20
0.3129 	7.17144e-20
0.3136 	4.83254e-20
0.3143 	3.80229e-20
0.315 	3.12895e-20
0.3157 	2.44721e-20
0.3164 	1.82093e-20
0.3171 	1.398e-20
0.3178 	1.02499e-20
0.3185 	6.82212e-21
0.3192 	5.02439e-21
0.3199 	4.13227e-21
0.3206 	3.23208e-21
0.3213 	2.35538e-21
0.322 	1.80135e-21
0.3227 	1.30017e-21
0.3234 	8.55915e-22
0.3241 	5.82034e-22
0.3248 	4.78527e-22
0.3255 	3.74368e-22
0.3262 	2.69947e-22
0.3269 	2.03499e-22
0.3276 	1.44424e-22
0.3283 	9.39905e-23
0.329 	5.78915e-23
0.3297 	4.75946e-23
0.3304 	3.72515e-23
0.3311 	2.68738e-23
0.3318 	1.97392e-23
0.3325 	1.37557e-23
0.3332 	8.84739e-24
0.3339 	4.80803e-24
0.3346 	3.9548e-24
0.3353 	3.09862e-24
0.336 	2.23853e-24
0.3367 	1.60135e-24
0.3374 	1.09462e-24
0.3381 	6.9661e-25
0.3388 	3.22958e-25
0.3395 	2.65949e-25
0.3402 	2.08779e-25
0.3409 	1.51205e-25
0.3416 	1.0536e-25
0.3423 	7.12435e-26
0.343 	4.4528e-26
0.3437 	1.84925e-26
0.3444 	1.38959e-26
0.3451 	1.09426e-26
0.3458 	7.95327e-27
0.3465 	5.40141e-27
0.3472 	3.63705e-27
0.3479 	2.2186e-27
0.3486 	9.00886e-28
0.3493 	5.31361e-28
0.35 	4.20438e-28
0.3507 	3.07002e-28
0.3514 	2.03509e-28
0.3521 	1.36477e-28
0.3528 	8.11691e-29
0.3535 	3.26557e-29
0.3542 	1.35529e-29
0.3549 	1.07896e-29
0.3556 	7.93613e-30
0.3563 	5.15037e-30
0.357 	3.43956e-30
0.3577 	1.98928e-30
0.3584 	8.0837e-31
0.3591 	1.98413e-31
0.3598 	1.59418e-31
0.3605 	1.1853e-31
0.3612 	7.68858e-32
0.3619 	5.03344e-32
0.3626 	2.81358e-32
0.3633 	1.18576e-32
0.364 	1.30671e-33
0.3647 	1.06516e-33
0.3654 	8.05488e-34
0.3661 	5.32239e-34
0.3668 	3.37556e-34
0.3675 	1.79792e-34
0.3682 	8.07158e-35
0.3689 	2.77108e-36
0.3696 	2.3089e-36
0.3703 	1.7939e-36
0.371 	1.20847e-36
0.3717 	7.47182e-37
0.3724 	3.68476e-37
0.3731 	1.781e-37
0.3738 	1.30868e-39
0.3745 	1.12521e-39
0.3752 	9.12323e-40
0.3759 	6.25892e-40
0.3766 	3.80261e-40
0.3773 	1.75429e-40
0.378 	8.6034e-41
0.3787 	5.86247e-42
0.3794 	1.19224e-43
0.3801 	9.97154e-44
0.3808 	6.97023e-44
0.3815 	4.26256e-44
0.3822 	2.08346e-44
0.3829 	9.81035e-45
0.3836 	1.74223e-45
0.3843 	1.19801e-47
0.385 	1.0269e-47
0.3857 	7.30327e-48
0.3864 	4.50894e-48
0.3871 	2.34316e-48
0.3878 	1.06582e-48
0.3885 	2.81446e-49
0.3892 	1.20454e-51
0.3899 	1.04128e-51
0.3906 	7.65767e-52
0.3913 	4.77117e-52
0.392 	2.60901e-52
0.3927 	1.14806e-52
0.3934 	3.83552e-53
0.3941 	1.21953e-55
0.3948 	1.06162e-55
0.3955 	8.06523e-56
0.3962 	5.12556e-56
0.3969 	2.90033e-56
0.3976 	1.24021e-56
0.3983 	4.86081e-57
0.399 	1.22504e-59
0.3997 	1.07208e-59
0.4004 	8.4013e-60
0.4011 	5.48939e-60
0.4018 	3.17095e-60
0.4025 	1.3241e-60
0.4032 	5.83294e-61
0.4039 	1.1961e-63
0.4046 	1.05093e-63
0.4053 	8.47935e-64
0.406 	5.67827e-64
0.4067 	3.34128e-64
0.4074 	1.36804e-64
0.4081 	6.59272e-65
0.4088 	1.11977e-67
0.4095 	9.8697e-68
0.4102 	8.18343e-68
0.4109 	5.60145e-68
0.4116 	3.35049e-68
0.4123 	1.43054e-68
0.413 	6.98283e-69
0.4137 	4.74794e-70
0.4144 	8.82423e-72
0.4151 	7.49196e-72
0.4158 	5.238e-72
0.4165 	3.18511e-72
0.4172 	1.49415e-72
0.4179 	6.93327e-73
0.4186 	1.22985e-73
0.4193 	-3.94036e-75
0.42 	-9.93236e-75
0.4207 	-4.20602e-75
0.4214 	2.63443e-76
0.4221 	1.24292e-76
0.4228 	4.54224e-77
0.4235 	-1.38723e-78
0.4242 	-8.65314e-75
0.4249 	-2.20855e-74
0.4256 	-1.25051e-74
0.4263 	-4.82722e-77
0.427 	-5.72282e-77
0.4277 	-6.30559e-77
0.4284 	-6.58934e-77
0.4291 	-7.03552e-75
0.4298 	-2.0972e-74
0.4305 	-1.50001e-74
0.4312 	-1.06488e-75
0.4319 	-6.84226e-77
0.4326 	-6.75394e-77
0.4333 	-6.7084e-77
0.434 	-4.03946e-75
0.4347 	-1.5163e-74
0.4354 	-1.35716e-74
0.4361 	-2.44411e-75
0.4368 	-5.65419e-77
0.4375 	-5.32154e-77
0.4382 	-5.18994e-77
0.4389 	-1.76289e-75
0.4396 	-9.75242e-75
0.4403 	-1.0892e-74
0.441 	-2.89835e-75
0.4417 	-4.11535e-77
0.4424 	-3.77781e-77
0.4431 	-3.66045e-77
0.4438 	-4.24649e-76
0.4445 	-5.87269e-75
0.4452 	-8.20666e-75
0.4459 	-2.75549e-75
0.4466 	-2.85408e-77
0.4473 	-2.5844e-77
0.448 	-2.48819e-77
0.4487 	-2.40207e-77
0.4494 	-3.36771e-75
0.4501 	-5.93952e-75
0.4508 	-2.33633e-75
0.4515 	-1.929e-77
0.4522 	-1.73505e-77
0.4529 	-1.64891e-77
0.4536 	-1.58914e-77
0.4543 	-1.84424e-75
0.455 	-4.17141e-75
0.4557 	-1.84272e-75
0.4564 	-1.27482e-77
0.4571 	-1.13928e-77
0.4578 	-1.06683e-77
0.4585 	-1.0266e-77
0.4592 	-9.55159e-76
0.4599 	-2.42522e-75
0.4606 	-1.37431e-75
0.4613 	-8.24367e-78
0.462 	-7.32538e-78
0.4627 	-6.74795e-78
0.4634 	-6.48469e-78
0.4641 	-4.58459e-76
0.4648 	-1.36267e-75
0.4655 	-9.74685e-76
0.4662 	-6.98154e-77
0.4669 	-4.61894e-78
0.4676 	-4.17978e-78
0.4683 	-4.01211e-78
0.469 	-1.96984e-76
0.4697 	-7.37608e-76
0.4704 	-6.6014e-76
0.4711 	-1.19103e-76
0.4718 	-2.85938e-78
0.4725 	-2.53756e-78
0.4732 	-2.43332e-78
0.4739 	-6.94933e-77
0.4746 	-3.82825e-76
0.4753 	-4.27477e-76
0.476 	-1.13891e-76
0.4767 	-1.73744e-78
0.4774 	-1.50855e-78
0.4781 	-1.44516e-78
0.4788 	-1.39426e-77
0.4795 	-1.89736e-76
0.4802 	-2.65031e-76
0.4809 	-8.9085e-77
0.4816 	-1.03538e-78
0.4823 	-8.82981e-79
0.483 	-8.39993e-79
0.4837 	-8.02297e-79
0.4844 	-8.95647e-77
0.4851 	-1.57833e-76
0.4858 	-6.21489e-77
0.4865 	-6.04923e-79
0.4872 	-5.12973e-79
0.4879 	-4.77905e-79
0.4886 	-4.5599e-79
0.4893 	-4.01295e-77
0.49 	-9.06291e-77
0.4907 	-4.00773e-77
0.4914 	-3.46464e-79
0.4921 	-2.92336e-79
0.4928 	-2.66143e-79
0.4935 	-2.53678e-79
0.4942 	-1.69435e-77
0.4949 	-4.29125e-77
0.4956 	-2.4338e-77
0.4963 	-1.94455e-79
0.497 	-1.63348e-79
0.4977 	-1.45021e-79
0.4984 	-1.38082e-79
0.4991 	-6.64317e-78
0.4998 	-1.96603e-77
0.5005 	-1.407e-77
0.5012 	-1.03661e-78
0.5019 	-8.94358e-80
0.5026 	-7.72796e-80
0.5033 	-7.34999e-80
0.504 	-2.34453e-78
0.5047 	-8.71023e-78
0.5054 	-7.79585e-78
0.5061 	-1.42141e-78
0.5068 	-4.79525e-80
0.5075 	-4.02566e-80
0.5082 	-3.82437e-80
0.5089 	-6.87827e-79
0.5096 	-3.72662e-78
0.5103 	-4.15876e-78
0.511 	-1.11537e-78
0.5117 	-2.51657e-80
0.5124 	-2.04953e-80
0.5131 	-1.94478e-80
0.5138 	-1.19665e-79
0.5145 	-1.53635e-78
0.5152 	-2.14282e-78
0.5159 	-7.23772e-79
0.5166 	-1.29234e-80
0.5173 	-1.02779e-80
0.518 	-9.66505e-81
0.5187 	-9.13259e-81
0.5194 	-6.08246e-79
0.5201 	-1.06896e-78
0.5208 	-4.22534e-79
0.5215 	-6.49277e-81
0.5222 	-5.15233e-81
0.5229 	-4.69447e-81
0.5236 	-4.43011e-81
0.5243 	-2.30033e-79
0.525 	-5.17237e-79
0.5257 	-2.29451e-79
0.5264 	-3.19099e-81
0.5271 	-2.5287e-81
0.5278 	-2.22875e-81
0.5285 	-2.10056e-81
0.5292 	-8.23921e-80
0.5299 	-2.07361e-79
0.5306 	-1.17859e-79
0.5313 	-1.53401e-81
0.532 	-1.21484e-81
0.5327 	-1.03436e-81
0.5334 	-9.73643e-82
0.5341 	-2.75288e-80
0.5348 	-8.06998e-80
0.5355 	-5.78192e-80
0.5362 	-4.51785e-81
0.5369 	-5.71213e-82
0.5376 	-4.69304e-82
0.5383 	-4.41207e-82
0.539 	-8.32534e-81
0.5397 	-3.04516e-80
0.5404 	-2.72567e-80
0.5411 	-5.07101e-81
0.5418 	-2.62822e-82
0.5425 	-2.08176e-82
0.5432 	-1.95474e-82
0.5439 	-2.1156e-81
0.5446 	-1.11228e-80
0.5453 	-1.23982e-80
0.546 	-3.36447e-81
0.5467 	-1.18314e-82
0.5474 	-9.02857e-83
0.5481 	-8.4675e-83
0.5488 	-3.35721e-82
0.5495 	-3.92335e-81
0.5502 	-5.4576e-81
0.5509 	-1.85843e-81
0.5516 	-5.21012e-83
0.5523 	-3.86243e-83
0.553 	-3.58633e-83
0.5537 	-3.34416e-83
0.5544 	-1.33178e-81
0.5551 	-2.32993e-81
0.5558 	-9.2662e-82
0.5565 	-2.24399e-83
0.5572 	-1.66891e-83
0.5579 	-1.48516e-83
0.5586 	-1.38303e-83
0.5593 	-4.32773e-82
0.56 	-9.66252e-82
0.5607 	-4.30731e-82
0.5614 	-9.45113e-84
0.5621 	-7.05539e-84
0.5628 	-6.01349e-84
0.5635 	-5.5926e-84
0.5642 	-1.3351e-82
0.5649 	-3.32725e-82
0.5656 	-1.89718e-82
0.5663 	-3.89197e-84
0.567 	-2.91756e-84
0.5677 	-2.38074e-84
0.5684 	-2.21125e-84
0.5691 	-3.85409e-83
0.5698 	-1.1137e-82
0.5705 	-7.99224e-83
0.5712 	-6.7648e-84
0.5719 	-1.1799e-84
0.5726 	-9.21598e-85
0.5733 	-8.54908e-85
0.574 	-1.0122e-83
0.5747 	-3.61901e-83
0.5754 	-3.23933e-83
0.5761 	-6.1978e-84
0.5768 	-4.66577e-85
0.5775 	-3.48851e-85
0.5782 	-3.23209e-85
0.5789 	-2.26095e-84
0.5796 	-1.13978e-83
0.5803 	-1.26824e-83
0.581 	-3.4973e-84
0.5817 	-1.8039e-85
0.5824 	-1.29135e-85
0.5831 	-1.19501e-85
0.5838 	-3.34576e-85
0.5845 	-3.47091e-84
0.5852 	-4.80996e-84
0.5859 	-1.65578e-84
0.5866 	-6.8186e-86
0.5873 	-4.71753e-86
0.588 	-4.32155e-86
0.5887 	-3.96779e-86
0.5894 	-1.01864e-84
0.5901 	-1.77096e-84
0.5908 	-7.09972e-85
0.5915 	-2.51991e-86
0.5922 	-1.7609e-86
0.5929 	-1.52893e-86
0.5936 	-1.40197e-86
0.5943 	-2.86687e-85
0.595 	-6.34066e-85
0.5957 	-2.8441e-85
0.5964 	-9.10629e-87
0.5971 	-6.42719e-87
0.5978 	-5.29344e-87
0.5985 	-4.84806e-87
0.5992 	-7.67794e-86
0.5999 	-1.8892e-85
0.6006 	-1.08146e-85
0.6013 	-3.21861e-87
0.602 	-2.2943e-87
0.6027 	-1.79417e-87
0.6034 	-1.64139e-87
0.6041 	-1.93094e-86
0.6048 	-5.47984e-86
0.6055 	-3.93992e-86
0.6062 	-3.6447e-87
0.6069 	-8.01224e-88
0.6076 	-5.95625e-88
0.6083 	-5.44357e-88
0.609 	-4.44521e-87
0.6097 	-1.54599e-86
0.6104 	-1.38363e-86
0.6111 	-2.73383e-87
0.6118 	-2.73853e-88
0.6125 	-1.93784e-88
0.6132 	-1.76948e-88
0.6139 	-8.82524e-88
0.6146 	-4.23695e-87
0.6153 	-4.70399e-87
0.616 	-1.32119e-87
0.6167 	-9.16605e-89
0.6174 	-6.18287e-89
0.6181 	-5.64144e-89
0.6188 	-1.23026e-88
0.6195 	-1.12598e-87
0.6202 	-1.55325e-87
0.6209 	-5.41305e-88
0.6216 	-3.00633e-89
0.6223 	-1.95246e-89
0.623 	-1.76544e-89
0.6237 	-1.59481e-89
0.6244 	-2.89391e-88
0.6251 	-4.99426e-88
0.6258 	-2.02025e-88
0.6265 	-9.6698e-90
0.6272 	-6.39616e-90
0.6279 	-5.42746e-90
0.6286 	-4.9001e-90
0.6293 	-7.16343e-89
0.63 	-1.56713e-88
0.6307 	-7.07828e-89
0.6314 	-3.05276e-90
0.6321 	-2.05448e-90
0.6328 	-1.64059e-90
0.6335 	-1.48059e-90
0.6342 	-1.69632e-89
0.6349 	-4.11363e-89
0.6356 	-2.36513e-89
0.6363 	-9.46783e-91
0.637 	-6.47635e-91
0.6377 	-4.88027e-91
0.6384 	-4.40333e-91
0.6391 	-3.79779e-90
0.6398 	-1.05604e-89
0.6405 	-7.60851e-90
0.6412 	-7.7083e-91
0.6419 	-2.00542e-91
0.6426 	-1.42984e-91
0.6433 	-1.29001e-91
0.644 	-7.85776e-91
0.6447 	-2.64992e-90
0.6454 	-2.37118e-90
0.6461 	-4.85281e-91
0.6468 	-6.10503e-92
0.6475 	-4.12876e-92
0.6482 	-3.72516e-92
0.6489 	-1.42641e-91
0.6496 	-6.49257e-91
0.6503 	-7.18969e-91
0.651 	-2.06141e-91
0.6517 	-1.82826e-92
0.6524 	-1.17541e-92
0.6531 	-1.06063e-92
0.6538 	-1.92391e-92
0.6545 	-1.55019e-91
0.6552 	-2.12711e-91
0.6559 	-7.51827e-92
0.6566 	-5.38671e-93
0.6573 	-3.32287e-93
0.658 	-2.97647e-93
0.6587 	-2.65465e-93
0.6594 	-3.59459e-92
0.6601 	-6.1503e-92
0.6608 	-2.51409e-92
0.6615 	-1.56049e-93
0.6622 	-9.86919e-94
0.6629 	-8.22142e-94
0.6636 	-7.33181e-94
0.6643 	-8.04738e-93
0.665 	-1.73806e-92
0.6657 	-7.91473e-93
0.6664 	-4.43612e-94
0.6671 	-2.86711e-94
0.6678 	-2.22841e-94
0.6685 	-1.98619e-94
0.6692 	-1.72212e-93
0.6699 	-4.10548e-93
0.6706 	-2.37251e-93
0.6713 	-1.2328e-94
0.672 	-8.117e-95
0.6727 	-5.89689e-95
0.6734 	-5.24899e-95
0.6741 	-3.46382e-94
0.6748 	-9.40644e-94
0.6755 	-6.79258e-94
0.6762 	-7.56136e-95
0.6769 	-2.22599e-95
0.6776 	-1.51201e-95
0.6783 	-1.3426e-95
0.679 	-6.35919e-95
0.6797 	-2.07106e-94
0.6804 	-1.85234e-94
0.6811 	-3.9322e-95
0.6818 	-5.86334e-96
0.6825 	-3.71975e-96
0.6832 	-3.29018e-96
0.6839 	-1.00686e-95
0.6846 	-4.3276e-95
0.6853 	-4.77676e-95
0.686 	-1.39713e-95
0.6867 	-1.46765e-96
0.6874 	-8.67997e-97
0.6881 	-7.63516e-97
0.6888 	-1.18565e-96
0.6895 	-8.45372e-96
0.6902 	-1.15294e-95
0.6909 	-4.12428e-96
0.6916 	-3.44898e-97
0.6923 	-1.91304e-97
0.693 	-1.65769e-97
0.6937 	-1.41714e-97
0.6944 	-1.51832e-96
0.6951 	-2.5743e-96
0.6958 	-1.06014e-96
0.6965 	-7.7058e-98
0.6972 	-4.9923e-98
0.6979 	-4.20997e-98
0.6986 	-3.77954e-98
0.6993 	-4.14651e-97
0.7 	-8.95458e-97
